no,raw,smooth
0,50.0,258.6494
1,49.0,258.82593
2,50.0,259.1081
3,50.0,259.29398
4,50.0,259.48364
5,53.0,259.6772
6,46.0,259.56854
7,50.0,260.17197
8,50.0,260.37955
9,51.0,260.59137
10,51.0,260.70547
11,51.0,260.8219
12,52.0,260.9407
13,57.0,260.9599
14,51.0,260.46927
15,48.0,260.58087
16,52.0,261.0009
17,53.0,261.0213
18,52.0,260.9401
19,51.0,260.95926
20,52.0,261.08087
21,51.0,261.10294
22,52.0,261.22748
23,55.0,261.2525
24,56.0,260.97195
25,53.0,260.58362
26,52.0,260.4935
27,47.0,260.50357
28,52.0,261.02405
29,51.0,261.04495
30,51.0,261.1683
31,52.0,261.2942
32,53.0,261.3206
33,53.0,261.2455
34,53.0,261.16888
35,53.0,261.0907
36,53.0,261.01093
37,51.0,260.9295
38,53.0,261.0505
39,55.0,260.9699
40,48.0,260.6836
41,52.0,261.1057
42,53.0,261.12827
43,55.0,261.04926
44,51.0,260.76456
45,48.0,260.8822
46,53.0,261.30838
47,52.0,261.23306
48,53.0,261.2582
49,53.0,261.18185
50,53.0,261.10394
51,53.0,261.02444
52,57.0,260.9433
53,50.0,260.45233
54,53.0,260.66565
55,55.0,260.57718
56,48.0,260.28284
57,53.0,260.69678
58,52.0,260.60895
59,52.0,260.62137
60,51.0,260.63403
61,54.0,260.74902
62,52.0,260.5602
63,53.0,260.57162
64,53.0,260.48126
65,53.0,260.38904
66,53.0,260.29492
67,56.0,260.1989
68,51.0,259.7948
69,49.0,259.89264
70,47.0,260.19656
71,56.0,260.7108
72,52.0,260.31714
73,52.0,260.3236
74,48.0,260.3302
75,52.0,260.7451
76,52.0,260.76028
77,53.0,260.7758
78,53.0,260.68958
79,54.0,260.6016
80,53.0,260.4098
81,52.0,260.3161
82,52.0,260.32254
83,53.0,260.3291
84,51.0,260.23376
85,48.0,260.34058
86,52.0,260.75568
87,57.0,260.7711
88,47.0,260.2766
89,52.0,260.79245
90,51.0,260.80862
91,52.0,260.92715
92,52.0,260.94608
93,51.0,260.96536
94,53.0,261.0871
95,53.0,261.00723
96,52.0,260.92575
97,52.0,260.94464
98,53.0,260.9639
99,53.0,260.88153
100,51.0,260.7975
101,54.0,260.9158
102,55.0,260.7304
103,53.0,260.43918
104,48.0,260.3461
105,53.0,260.76132
106,52.0,260.6748
107,53.0,260.68857
108,52.0,260.6006
109,52.0,260.61282
110,53.0,260.6253
111,55.0,260.536
112,53.0,260.24084
113,51.0,260.1437
114,47.0,260.2487
115,52.0,260.76395
116,50.0,260.77954
117,53.0,260.99954
118,53.0,260.9179
119,58.0,260.8346
120,49.0,260.23938
121,53.0,260.55038
122,52.0,260.45956
123,52.0,260.46893
124,51.0,260.4785
125,52.0,260.5903
126,52.0,260.60233
127,52.0,260.6146
128,52.0,260.62714
129,51.0,260.63992
130,53.0,260.755
131,58.0,260.66837
132,48.0,260.06976
133,48.0,260.47934
134,52.0,260.89728
135,55.0,260.9156
136,51.0,260.62814
137,51.0,260.743
138,53.0,260.8602
139,52.0,260.77573
140,52.0,260.79153
141,52.0,260.80768
142,52.0,260.82416
143,53.0,260.84097
144,52.0,260.7561
145,53.0,260.7715
146,53.0,260.6852
147,51.0,260.59717
148,48.0,260.7114
149,53.0,261.13406
150,52.0,261.05518
151,54.0,261.0767
152,51.0,260.89456
153,52.0,261.01486
154,54.0,261.03555
155,55.0,260.8526
156,51.0,260.56387
157,49.0,260.67743
158,48.0,260.99738
159,51.0,261.4259
160,54.0,261.55704
161,53.0,261.38474
162,51.0,261.31097
163,52.0,261.43976
164,52.0,261.46912
165,52.0,261.49908
166,53.0,261.52966
167,53.0,261.45886
168,51.0,261.3866
169,52.0,261.51694
170,52.0,261.54788
171,53.0,261.57947
172,52.0,261.50967
173,53.0,261.54047
174,52.0,261.46988
175,52.0,261.49985
176,52.0,261.53043
177,53.0,261.56165
178,54.0,261.4915
179,51.0,261.31784
180,51.0,261.44678
181,53.0,261.57834
182,53.0,261.5085
183,53.0,261.43726
184,52.0,261.36456
185,52.0,261.3924
186,53.0,261.4208
187,52.0,261.34778
188,53.0,261.37527
189,52.0,261.3013
190,58.0,261.32785
191,52.0,260.7427
192,48.0,260.75784
193,52.0,261.18146
194,57.0,261.20557
195,47.0,260.71997
196,53.0,261.24484
197,53.0,261.1682
198,58.0,261.09003
199,55.0,260.50003
200,51.0,260.2041
201,46.0,260.3103
202,48.0,260.92886
203,52.0,261.356
204,53.0,261.38364
205,52.0,261.30984
206,53.0,261.33655
207,53.0,261.26178
208,52.0,261.1855
209,53.0,261.20966
210,55.0,261.1323
211,52.0,260.84927
212,52.0,260.8666
213,53.0,260.88428
214,53.0,260.8003
215,52.0,260.7146
216,52.0,260.7292
217,52.0,260.74405
218,52.0,260.75922
219,55.0,260.7747
220,53.0,260.48438
221,50.0,260.3922
222,52.0,260.60428
223,52.0,260.6166
224,52.0,260.62918
225,53.0,260.642
226,52.0,260.55307
227,51.0,260.56436
228,52.0,260.67792
229,53.0,260.69174
230,52.0,260.60382
231,52.0,260.61612
232,53.0,260.6287
233,48.0,260.5395
234,53.0,260.95865
235,52.0,260.87616
236,53.0,260.89404
237,52.0,260.81024
238,52.0,260.82678
239,52.0,260.84366
240,53.0,260.86087
241,55.0,260.7764
242,53.0,260.4861
243,51.0,260.39398
244,52.0,260.50406
245,48.0,260.51434
246,53.0,260.933
247,53.0,260.85
248,56.0,260.76532
249,52.0,260.37277
250,51.0,260.38037
251,48.0,260.49017
252,51.0,260.90833
253,51.0,261.0289
254,51.0,261.15195
255,53.0,261.2775
256,52.0,261.20154
257,57.0,261.22604
258,48.0,260.74084
259,52.0,261.16412
260,53.0,261.18787
261,52.0,261.11008
262,51.0,261.13272
263,53.0,261.25787
264,55.0,261.18152
265,49.0,260.8995
266,52.0,261.22397
267,52.0,261.24893
268,53.0,261.2744
269,53.0,261.1984
270,52.0,261.12082
271,52.0,261.14368
272,53.0,261.16702
273,55.0,261.0888
274,48.0,260.8049
275,53.0,261.2295
276,52.0,261.15256
277,53.0,261.17606
278,57.0,261.09802
279,52.0,260.61023
280,53.0,260.62268
281,48.0,260.53336
282,52.0,260.9524
283,52.0,260.97183
284,53.0,260.99167
285,55.0,260.90985
286,55.0,260.6223
287,51.0,260.3289
288,47.0,260.43762
289,49.0,260.95676
290,52.0,261.2824
291,52.0,261.30856
292,52.0,261.33527
293,52.0,261.3625
294,53.0,261.3903
295,52.0,261.31662
296,56.0,261.34348
297,48.0,260.96274
298,52.0,261.39056
299,53.0,261.4189
300,53.0,261.34583
301,52.0,261.27127
302,52.0,261.2972
303,53.0,261.32367
304,53.0,261.24866
305,51.0,261.1721
306,53.0,261.29803
307,53.0,261.22247
308,55.0,261.1454
309,52.0,260.86264
310,48.0,260.88025
311,53.0,261.3064
312,57.0,261.23102
313,47.0,260.74594
314,53.0,261.27136
315,53.0,261.19528
316,53.0,261.11765
317,52.0,261.03842
318,52.0,261.0596
319,52.0,261.0812
320,57.0,261.10327
321,48.0,260.61557
322,52.0,261.0363
323,52.0,261.05743
324,53.0,261.079
325,52.0,260.999
326,53.0,261.01938
327,53.0,260.93814
328,56.0,260.85526
329,51.0,260.46454
330,52.0,260.57605
331,51.0,260.5878
332,48.0,260.70184
333,52.0,261.12433
334,52.0,261.14728
335,52.0,261.1707
336,55.0,261.19458
337,52.0,260.91284
338,52.0,260.93146
339,48.0,260.95047
340,52.0,261.37805
341,52.0,261.40616
342,52.0,261.43484
343,52.0,261.4641
344,57.0,261.494
345,51.0,261.01425
346,53.0,261.137
347,53.0,261.05817
348,53.0,260.97772
349,52.0,260.89563
350,52.0,260.9139
351,53.0,260.93256
352,52.0,260.84955
353,52.0,260.86688
354,52.0,260.88455
355,53.0,260.9026
356,53.0,260.81897
357,53.0,260.73364
358,52.0,260.64658
359,53.0,260.65976
360,52.0,260.5712
361,52.0,260.58286
362,51.0,260.59473
363,53.0,260.7089
364,53.0,260.6213
365,53.0,260.53195
366,53.0,260.44077
367,55.0,260.34772
368,49.0,260.0487
369,48.0,260.3558
370,53.0,260.77124
371,52.0,260.68494
372,54.0,260.6989
373,55.0,260.5091
374,51.0,260.21335
375,49.0,260.31973
376,48.0,260.6324
377,52.0,261.05347
378,53.0,261.07495
379,52.0,260.99484
380,52.0,261.01514
381,51.0,261.03586
382,53.0,261.15903
383,57.0,261.08063
384,49.0,260.59247
385,53.0,260.91068
386,53.0,260.8272
387,52.0,260.74207
388,52.0,260.7572
389,53.0,260.77264
390,52.0,260.68637
391,53.0,260.70038
392,53.0,260.61264
393,52.0,260.5231
394,53.0,260.53375
395,52.0,260.4426
396,55.0,260.45163
397,51.0,260.15472
398,48.0,260.25992
399,55.0,260.67337
400,48.0,260.38098
401,53.0,260.7969
402,52.0,260.71112
403,54.0,260.72562
404,52.0,260.53635
405,52.0,260.54727
406,52.0,260.55844
407,53.0,260.56982
408,53.0,260.4794
409,52.0,260.38715
410,53.0,260.39505
411,52.0,260.30106
412,52.0,260.3072
413,52.0,260.31345
414,53.0,260.31982
415,52.0,260.2243
416,56.0,260.22888
417,55.0,259.82538
418,52.0,259.5157
419,46.0,259.5058
420,52.0,260.10794
421,53.0,260.11014
422,52.0,260.01035
423,52.0,260.01056
424,53.0,260.01077
425,53.0,259.90897
426,51.0,259.80505
427,49.0,259.9031
428,52.0,260.20724
429,51.0,260.21146
430,53.0,260.3178
431,52.0,260.22226
432,53.0,260.22678
433,51.0,260.12936
434,52.0,260.23404
435,53.0,260.2388
436,52.0,260.14163
437,52.0,260.1445
438,53.0,260.14743
439,53.0,260.0484
440,52.0,259.94736
441,52.0,259.94626
442,48.0,259.94516
443,53.0,260.3522
444,53.0,260.25735
445,53.0,260.16055
446,56.0,260.0618
447,47.0,259.6549
448,52.0,260.15805
449,52.0,260.16125
450,51.0,260.16455
451,52.0,260.26996
452,52.0,260.27545
453,53.0,260.28107
454,53.0,260.18475
455,56.0,260.0865
456,51.0,259.68008
457,51.0,259.7756
458,48.0,259.87308
459,53.0,260.27866
460,55.0,260.1823
461,52.0,259.8799
462,51.0,259.87744
463,44.0,259.977
464,52.0,260.79285
465,51.0,260.80902
466,53.0,260.92758
467,53.0,260.84448
468,51.0,260.75967
469,53.0,260.87723
470,52.0,260.7931
471,51.0,260.80927
472,53.0,260.92783
473,55.0,260.84473
474,48.0,260.55585
475,52.0,260.97534
476,53.0,260.99524
477,53.0,260.9135
478,53.0,260.8301
479,48.0,260.745
480,52.0,261.16837
481,53.0,261.1922
482,53.0,261.1145
483,53.0,261.03522
484,57.0,260.9543
485,52.0,260.4636
486,47.0,260.47305
487,52.0,260.9929
488,52.0,261.01315
489,55.0,261.0338
490,48.0,260.74878
491,53.0,261.1722
492,51.0,261.0941
493,53.0,261.21844
494,51.0,261.14127
495,52.0,261.26657
496,52.0,261.2924
497,53.0,261.31876
498,52.0,261.24362
499,53.0,261.26898
500,52.0,261.19284
501,52.0,261.21716
502,52.0,261.24197
503,56.0,261.2673
504,55.0,260.885
505,54.0,260.59695
506,48.0,260.40506
507,48.0,260.8215
508,52.0,261.24643
509,55.0,261.27185
510,50.0,260.9917
511,52.0,261.21603
512,53.0,261.24084
513,53.0,261.16412
514,55.0,261.08585
515,51.0,260.80188
516,48.0,260.9203
517,51.0,261.34723
518,52.0,261.47675
519,53.0,261.50687
520,53.0,261.43558
521,57.0,261.36285
522,48.0,260.88046
523,52.0,261.3066
524,54.0,261.33325
525,56.0,261.15637
526,47.0,260.77182
527,53.0,261.29776
528,52.0,261.2222
529,52.0,261.24713
530,52.0,261.27255
531,52.0,261.2985
532,53.0,261.32498
533,53.0,261.25
534,52.0,261.17346
535,52.0,261.1974
536,54.0,261.2218
537,56.0,261.04266
538,50.0,260.65576
539,53.0,260.8732
540,52.0,260.78897
541,51.0,260.80505
542,48.0,260.92352
543,57.0,261.35056
544,52.0,260.8679
545,48.0,260.8856
546,53.0,261.31183
547,55.0,261.23657
548,52.0,260.9557
549,51.0,260.9752
550,47.0,261.09714
551,53.0,261.6297
552,52.0,261.5609
553,57.0,261.59274
554,50.0,261.11502
555,53.0,261.34186
556,53.0,261.2672
557,51.0,261.19104
558,52.0,261.31738
559,53.0,261.34424
560,52.0,261.26962
561,52.0,261.2955
562,52.0,261.32193
563,52.0,261.34888
564,53.0,261.37637
565,53.0,261.30243
566,52.0,261.227
567,52.0,261.252
568,53.0,261.27756
569,54.0,261.2016
570,50.0,261.02203
571,53.0,261.24698
572,60.0,261.17038
573,51.0,260.37793
574,50.0,260.48767
575,52.0,260.70172
576,53.0,260.71603
577,52.0,260.6286
578,53.0,260.64142
579,52.0,260.55246
580,52.0,260.56372
581,53.0,260.57523
582,51.0,260.48492
583,52.0,260.59686
584,52.0,260.60904
585,53.0,260.62146
586,52.0,260.5321
587,53.0,260.54297
588,57.0,260.452
589,49.0,259.95102
590,55.0,260.25613
591,55.0,259.95523
592,51.0,259.6482
593,50.0,259.74304
594,48.0,259.94186
595,52.0,260.34885
596,52.0,260.35596
597,53.0,260.36322
598,52.0,260.2686
599,52.0,260.27405
600,52.0,260.27963
601,53.0,260.28534
602,53.0,260.18912
603,52.0,260.09094
604,49.0,260.0928
605,48.0,260.40082
606,52.0,260.81717
607,52.0,260.83383
608,52.0,260.85083
609,53.0,260.8682
610,53.0,260.78387
611,53.0,260.69785
612,52.0,260.61005
613,52.0,260.6225
614,52.0,260.6352
615,52.0,260.64813
616,53.0,260.66135
617,53.0,260.5728
618,52.0,260.48245
619,53.0,260.49228
620,52.0,260.4003
621,53.0,260.40845
622,52.0,260.31473
623,53.0,260.32114
624,52.0,260.22565
625,53.0,260.23026
626,52.0,260.1329
627,52.0,260.13562
628,52.0,260.13837
629,52.0,260.14117
630,52.0,260.14404
631,57.0,260.14697
632,52.0,259.63977
633,49.0,259.63242
634,54.0,259.93103
635,55.0,259.72552
636,50.0,259.41382
637,48.0,259.60593
638,52.0,260.00604
639,51.0,260.00616
640,53.0,260.10834
641,52.0,260.0085
642,53.0,260.00867
643,52.0,259.9068
644,52.0,259.90488
645,51.0,259.90292
646,52.0,260.003
647,52.0,260.00305
648,53.0,260.0031
649,53.0,259.90112
650,52.0,259.79706
651,56.0,259.7929
652,46.0,259.38052
653,52.0,259.98013
654,51.0,259.9797
655,53.0,260.08133
656,52.0,259.98096
657,53.0,259.98056
658,51.0,259.8781
659,53.0,259.97766
660,54.0,259.87515
661,55.0,259.66852
662,52.0,259.35562
663,48.0,259.34247
664,53.0,259.7372
665,52.0,259.62982
666,51.0,259.62225
667,52.0,259.71658
668,48.0,259.7108
669,52.0,260.11304
670,52.0,260.11533
671,53.0,260.11768
672,52.0,260.01804
673,52.0,260.0184
674,52.0,260.01877
675,52.0,260.01913
676,53.0,260.0195
677,54.0,259.91785
678,55.0,259.7121
679,51.0,259.4001
680,50.0,259.48987
681,48.0,259.68353
682,51.0,260.08524
683,50.0,260.18903
684,52.0,260.39694
685,52.0,260.40503
686,51.0,260.4133
687,53.0,260.52377
688,52.0,260.43243
689,52.0,260.44125
690,57.0,260.45026
691,51.0,259.94922
692,47.0,260.05023
693,52.0,260.56146
694,53.0,260.5729
695,52.0,260.48254
696,52.0,260.49237
697,52.0,260.5024
698,56.0,260.51266
699,48.0,260.11496
700,52.0,260.52548
701,53.0,260.5362
702,52.0,260.4451
703,53.0,260.45416
704,53.0,260.3614
705,52.0,260.26672
706,53.0,260.27216
707,53.0,260.17566
708,53.0,260.0772
709,52.0,259.97675
710,53.0,259.97626
711,52.0,259.87372
712,52.0,259.87112
713,52.0,259.8685
714,55.0,259.8658
715,44.0,259.55695
716,52.0,260.36423
717,53.0,260.37164
718,52.0,260.2772
719,54.0,260.28284
720,55.0,260.08453
721,54.0,259.78012
722,51.0,259.57153
723,52.0,259.66483
724,47.0,259.658
725,48.0,260.1612
726,52.0,260.57263
727,53.0,260.58432
728,52.0,260.4942
729,53.0,260.50427
730,55.0,260.41254
731,44.0,260.1148
732,52.0,260.93347
733,52.0,260.9525
734,52.0,260.97195
735,52.0,260.9918
736,52.0,261.01202
737,52.0,261.03265
738,51.0,261.0537
739,52.0,261.17725
740,53.0,261.20126
741,52.0,261.12375
742,52.0,261.14667
743,52.0,261.17004
744,53.0,261.1939
745,53.0,261.11624
746,54.0,261.037
747,48.0,260.85406
748,52.0,261.27966
749,57.0,261.30576
750,51.0,260.8222
751,48.0,260.941
752,52.0,261.36838
753,53.0,261.3963
754,53.0,261.32275
755,53.0,261.2477
756,53.0,261.17114
757,52.0,261.093
758,52.0,261.1153
759,52.0,261.13806
760,52.0,261.1613
761,53.0,261.18497
762,54.0,261.10712
763,49.0,260.92563
764,53.0,261.25064
765,57.0,261.17413
766,52.0,260.6879
767,51.0,260.70193
768,48.0,260.8183
769,53.0,261.24316
770,52.0,261.1665
771,51.0,261.1903
772,54.0,261.31662
773,53.0,261.1394
774,52.0,261.0606
775,53.0,261.08224
776,51.0,261.0023
777,57.0,261.1248
778,54.0,260.63754
779,51.0,260.44647
780,52.0,260.55762
781,52.0,260.569
782,52.0,260.5806
783,52.0,260.59244
784,52.0,260.60452
785,53.0,260.61685
786,52.0,260.5274
787,52.0,260.53815
788,53.0,260.54913
789,52.0,260.4583
790,52.0,260.46765
791,52.0,260.47717
792,53.0,260.4869
793,56.0,260.3948
794,49.0,259.9947
795,52.0,260.3007
796,53.0,260.30682
797,53.0,260.21103
798,52.0,260.11328
799,52.0,260.11557
800,53.0,260.11792
801,52.0,260.01828
802,52.0,260.01865
803,53.0,260.019
804,51.0,259.91736
805,52.0,260.0177
806,52.0,260.01807
807,52.0,260.01843
808,58.0,260.0188
809,47.0,259.40695
810,48.0,259.90503
811,49.0,260.31125
812,48.0,260.62372
813,52.0,261.04462
814,52.0,261.06592
815,52.0,261.08765
816,53.0,261.10983
817,52.0,261.03043
818,51.0,261.05145
819,51.0,261.17496
820,52.0,261.30096
821,52.0,261.32748
822,52.0,261.35455
823,53.0,261.38217
824,53.0,261.30835
825,51.0,261.23303
826,54.0,261.36023
827,51.0,261.1839
828,53.0,261.3101
829,53.0,261.2348
830,53.0,261.15796
831,53.0,261.07956
832,52.0,260.99954
833,53.0,261.01993
834,53.0,260.9387
835,52.0,260.8558
836,53.0,260.87326
837,53.0,260.78903
838,53.0,260.7031
839,49.0,260.6154
840,56.0,260.93405
841,49.0,260.54495
842,52.0,260.86218
843,51.0,260.87976
844,52.0,260.99976
845,53.0,261.02014
846,52.0,260.93893
847,52.0,260.9581
848,53.0,260.97763
849,52.0,260.89554
850,52.0,260.91382
851,53.0,260.93246
852,55.0,260.84946
853,55.0,260.56067
854,52.0,260.26596
855,48.0,260.2714
856,55.0,260.6851
857,48.0,260.39294
858,53.0,260.8091
859,52.0,260.72357
860,52.0,260.73834
861,52.0,260.7534
862,53.0,260.76874
863,52.0,260.68237
864,53.0,260.6963
865,51.0,260.60846
866,53.0,260.7229
867,56.0,260.63562
868,51.0,260.24042
869,48.0,260.34735
870,52.0,260.7626
871,53.0,260.77817
872,51.0,260.69202
873,52.0,260.80817
874,53.0,260.82465
875,52.0,260.73944
876,52.0,260.75452
877,53.0,260.7699
878,52.0,260.68356
879,53.0,260.6975
880,53.0,260.6097
881,52.0,260.5201
882,52.0,260.5307
883,52.0,260.54153
884,53.0,260.55258
885,51.0,260.46182
886,52.0,260.57327
887,53.0,260.58496
888,51.0,260.49484
889,52.0,260.60696
890,53.0,260.61935
891,53.0,260.52997
892,48.0,260.43875
893,52.0,260.85587
894,53.0,260.87332
895,54.0,260.7891
896,61.0,260.6011
897,50.0,259.695
898,48.0,259.89285
899,48.0,260.29883
900,52.0,260.7131
901,52.0,260.72766
902,51.0,260.7425
903,57.0,260.85968
904,50.0,260.367
905,52.0,260.57858
906,52.0,260.5904
907,55.0,260.60242
908,48.0,260.30856
909,52.0,260.72302
910,52.0,260.73776
911,53.0,260.7528
912,53.0,260.66614
913,52.0,260.5777
914,52.0,260.58948
915,53.0,260.6015
916,52.0,260.51175
917,52.0,260.5222
918,51.0,260.53284
919,56.0,260.64575
920,48.0,260.25076
921,53.0,260.66403
922,53.0,260.57553
923,55.0,260.48523
924,48.0,260.189
925,53.0,260.601
926,55.0,260.51123
927,52.0,260.2155
928,48.0,260.2199
929,52.0,260.63257
930,52.0,260.64548
931,52.0,260.65863
932,52.0,260.67206
933,52.0,260.68576
934,52.0,260.69974
935,52.0,260.71402
936,50.0,260.72858
937,53.0,260.9475
938,53.0,260.8648
939,57.0,260.78043
940,50.0,260.28613
941,52.0,260.49603
942,47.0,260.50613
943,52.0,261.02667
944,52.0,261.0476
945,52.0,261.06897
946,52.0,261.0908
947,52.0,261.11304
948,53.0,261.13574
949,53.0,261.0569
950,53.0,260.9764
951,51.0,260.8943
952,52.0,261.0146
953,52.0,261.03528
954,52.0,261.0564
955,58.0,261.07794
956,48.0,260.4877
957,48.0,260.90582
958,53.0,261.3325
959,52.0,261.25766
960,53.0,261.2833
961,52.0,261.20743
962,52.0,261.23206
963,52.0,261.25717
964,52.0,261.2828
965,53.0,261.30896
966,57.0,261.23364
967,49.0,260.7486
968,52.0,261.06998
969,52.0,261.0918
970,53.0,261.11407
971,56.0,261.03476
972,47.0,260.6477
973,53.0,261.1711
974,52.0,261.09296
975,51.0,261.11526
976,52.0,261.24005
977,53.0,261.26535
978,53.0,261.18912
979,52.0,261.11136
980,52.0,261.13403
981,53.0,261.15717
982,56.0,261.07874
983,51.0,260.6926
984,53.0,260.80878
985,51.0,260.72324
986,48.0,260.84003
987,56.0,261.26535
988,50.0,260.883
989,53.0,261.1051
990,51.0,261.0256
991,52.0,261.14856
992,51.0,261.172
993,52.0,261.29794
994,52.0,261.3244
995,52.0,261.3514
996,53.0,261.37897
997,52.0,261.30508
998,52.0,261.3317
999,52.0,261.35886
1000,53.0,261.38657
1001,53.0,261.31284
1002,53.0,261.2376
1003,57.0,261.16083
1004,51.0,260.67432
1005,53.0,260.79013
1006,53.0,260.70422
1007,52.0,260.61655
1008,52.0,260.62912
1009,52.0,260.64194
1010,53.0,260.65503
1011,51.0,260.56635
1012,52.0,260.67993
1013,53.0,260.6938
1014,53.0,260.6059
1015,52.0,260.51624
1016,48.0,260.52676
1017,53.0,260.94568
1018,52.0,260.86295
1019,54.0,260.88055
1020,51.0,260.69443
1021,52.0,260.81064
1022,53.0,260.82718
1023,53.0,260.742
1024,53.0,260.65512
1025,52.0,260.56644
1026,54.0,260.57797
1027,55.0,260.38568
1028,52.0,260.0874
1029,51.0,260.08917
1030,48.0,260.19302
1031,52.0,260.60513
1032,52.0,260.61746
1033,53.0,260.63007
1034,53.0,260.5409
1035,53.0,260.4499
1036,52.0,260.35703
1037,52.0,260.3643
1038,52.0,260.3717
1039,52.0,260.37927
1040,52.0,260.387
1041,51.0,260.39487
1042,52.0,260.50497
1043,57.0,260.51526
1044,51.0,260.01556
1045,51.0,260.11792
1046,48.0,260.22235
1047,52.0,260.63504
1048,52.0,260.64798
1049,52.0,260.6612
1050,53.0,260.67468
1051,53.0,260.5864
1052,51.0,260.4963
1053,52.0,260.60846
1054,51.0,260.62088
1055,52.0,260.7356
1056,52.0,260.7506
1057,52.0,260.76593
1058,53.0,260.78156
1059,52.0,260.69547
1060,51.0,260.70966
1061,55.0,260.82617
1062,48.0,260.53693
1063,53.0,260.95605
1064,52.0,260.87354
1065,52.0,260.89136
1066,52.0,260.90955
1067,53.0,260.9281
1068,53.0,260.845
1069,52.0,260.7602
1070,57.0,260.7757
1071,55.0,260.2813
1072,52.0,259.98093
1073,51.0,259.98053
1074,50.0,260.08218
1075,48.0,260.28793
1076,52.0,260.70197
1077,52.0,260.71628
1078,52.0,260.7309
1079,52.0,260.7458
1080,51.0,260.761
1081,52.0,260.87854
1082,53.0,260.89645
1083,52.0,260.8127
1084,52.0,260.82928
1085,51.0,260.8462
1086,52.0,260.96548
1087,52.0,260.98517
1088,53.0,261.00528
1089,52.0,260.92377
1090,51.0,260.9426
1091,52.0,261.06387
1092,55.0,261.08557
1093,51.0,260.8016
1094,52.0,260.92
1095,52.0,260.93878
1096,52.0,260.95792
1097,53.0,260.97745
1098,53.0,260.89536
1099,53.0,260.81158
1100,52.0,260.7261
1101,52.0,260.7409
1102,57.0,260.756
1103,51.0,260.26123
1104,48.0,260.3686
1105,52.0,260.78427
1106,53.0,260.80026
1107,52.0,260.71454
1108,56.0,260.72913
1109,48.0,260.33585
1110,53.0,260.75085
1111,52.0,260.66412
1112,52.0,260.67767
1113,53.0,260.6915
1114,57.0,260.60358
1115,51.0,260.10568
1116,51.0,260.20987
1117,48.0,260.3162
1118,52.0,260.7308
1119,52.0,260.7457
1120,51.0,260.7609
1121,53.0,260.87845
1122,52.0,260.79434
1123,52.0,260.81055
1124,55.0,260.8271
1125,48.0,260.53784
1126,52.0,260.95697
1127,53.0,260.9765
1128,52.0,260.89438
1129,52.0,260.91263
1130,53.0,260.93124
1131,53.0,260.8482
1132,55.0,260.7635
1133,48.0,260.47293
1134,49.0,260.89075
1135,52.0,261.21503
1136,52.0,261.2398
1137,52.0,261.2651
1138,53.0,261.2909
1139,52.0,261.2152
1140,52.0,261.24
1141,52.0,261.2653
1142,53.0,261.2911
1143,52.0,261.21542
1144,53.0,261.2402
1145,53.0,261.16348
1146,52.0,261.08517
1147,52.0,261.1073
1148,55.0,261.12988
1149,48.0,260.8468
1150,52.0,261.27225
1151,52.0,261.2982
1152,52.0,261.32468
1153,52.0,261.35168
1154,53.0,261.37924
1155,54.0,261.30536
1156,51.0,261.1279
1157,57.0,261.25296
1158,55.0,260.7683
1159,52.0,260.47787
1160,48.0,260.4876
1161,56.0,260.90573
1162,53.0,260.51605
1163,48.0,260.42453
1164,55.0,260.84137
1165,48.0,260.5524
1166,52.0,260.97183
1167,52.0,260.99167
1168,52.0,261.0119
1169,52.0,261.03253
1170,53.0,261.0536
1171,57.0,260.97305
1172,47.0,260.4827
1173,54.0,261.00275
1174,52.0,260.81912
1175,53.0,260.83582
1176,52.0,260.75082
1177,52.0,260.76614
1178,52.0,260.78177
1179,52.0,260.7977
1180,56.0,260.81396
1181,46.0,260.42242
1182,53.0,261.04327
1183,52.0,260.96252
1184,52.0,260.98215
1185,53.0,261.00217
1186,52.0,260.92056
1187,55.0,260.93933
1188,48.0,260.65237
1189,52.0,261.07385
1190,56.0,261.09576
1191,51.0,260.70996
1192,49.0,260.82648
1193,52.0,261.14944
1194,52.0,261.17288
1195,52.0,261.1968
1196,57.0,261.22122
1197,49.0,260.73593
1198,53.0,261.05707
1199,53.0,260.9766
1200,53.0,260.89447
1201,56.0,260.81067
1202,53.0,260.41904
1203,51.0,260.32556
1204,48.0,260.43423
1205,52.0,260.85126
1206,53.0,260.86862
1207,52.0,260.7843
1208,52.0,260.8003
1209,51.0,260.81662
1210,52.0,260.93533
1211,52.0,260.9544
1212,56.0,260.97388
1213,51.0,260.58557
1214,52.0,260.69955
1215,52.0,260.71384
1216,52.0,260.7284
1217,53.0,260.74326
1218,54.0,260.65637
1219,52.0,260.46567
1220,55.0,260.47516
1221,52.0,260.17874
1222,48.0,260.18237
1223,53.0,260.59427
1224,51.0,260.50436
1225,52.0,260.6167
1226,52.0,260.62927
1227,52.0,260.64212
1228,54.0,260.6552
1229,51.0,260.4645
1230,53.0,260.57602
1231,53.0,260.48575
1232,52.0,260.39362
1233,52.0,260.40164
1234,56.0,260.40982
1235,49.0,260.01
1236,53.0,260.31635
1237,52.0,260.22076
1238,52.0,260.22525
1239,52.0,260.22983
1240,52.0,260.2345
1241,51.0,260.23926
1242,51.0,260.3462
1243,53.0,260.4553
1244,58.0,260.36255
1245,53.0,259.7577
1246,51.0,259.6507
1247,48.0,259.7456
1248,48.0,260.1486
1249,57.0,260.55978
1250,53.0,260.061
1251,46.0,259.9602
1252,52.0,260.57162
1253,52.0,260.58328
1254,51.0,260.59518
1255,52.0,260.70938
1256,52.0,260.72385
1257,52.0,260.73862
1258,53.0,260.7537
1259,53.0,260.66702
1260,53.0,260.57858
1261,51.0,260.48834
1262,53.0,260.60034
1263,52.0,260.51056
1264,52.0,260.52097
1265,52.0,260.5316
1266,53.0,260.54242
1267,52.0,260.45145
1268,53.0,260.46066
1269,52.0,260.368
1270,52.0,260.37552
1271,52.0,260.38318
1272,51.0,260.391
1273,52.0,260.501
1274,52.0,260.51123
1275,52.0,260.52167
1276,53.0,260.53232
1277,51.0,260.44113
1278,53.0,260.5522
1279,55.0,260.46143
1280,51.0,260.1647
1281,49.0,260.2701
1282,52.0,260.58173
1283,53.0,260.5936
1284,52.0,260.50366
1285,52.0,260.51395
1286,52.0,260.5244
1287,53.0,260.5351
1288,57.0,260.44397
1289,51.0,259.9428
1290,52.0,260.04367
1291,48.0,260.04456
1292,52.0,260.4536
1293,51.0,260.46286
1294,53.0,260.57434
1295,52.0,260.484
1296,52.0,260.49387
1297,58.0,260.50394
1298,50.0,259.90198
1299,52.0,260.10406
1300,52.0,260.10617
1301,52.0,260.10834
1302,51.0,260.11053
1303,52.0,260.2148
1304,53.0,260.21918
1305,53.0,260.1216
1306,52.0,260.02206
1307,53.0,260.0225
1308,57.0,259.9209
1309,50.0,259.40906
1310,48.0,259.60107
1311,52.0,260.0011
1312,53.0,260.0011
1313,57.0,259.89908
1314,47.0,259.3868
1315,52.0,259.8845
1316,51.0,259.8821
1317,52.0,259.98175
1318,52.0,259.98135
1319,51.0,259.98096
1320,51.0,260.0826
1321,52.0,260.18634
1322,53.0,260.19012
1323,53.0,260.09195
1324,52.0,259.9918
1325,51.0,259.9916
1326,49.0,260.09348
1327,52.0,260.4015
1328,53.0,260.40967
1329,51.0,260.31598
1330,52.0,260.42447
1331,56.0,260.43314
1332,55.0,260.0338
1333,51.0,259.72836
1334,50.0,259.82486
1335,48.0,260.02536
1336,52.0,260.43405
1337,53.0,260.4429
1338,55.0,260.34988
1339,51.0,260.0509
1340,48.0,260.154
1341,51.0,260.5653
1342,48.0,260.6789
1343,52.0,261.10092
1344,53.0,261.12338
1345,51.0,261.04428
1346,53.0,261.16763
1347,52.0,261.08942
1348,52.0,261.11163
1349,53.0,261.1343
1350,52.0,261.05542
1351,52.0,261.07693
1352,52.0,261.0989
1353,52.0,261.12134
1354,52.0,261.14423
1355,53.0,261.16757
1356,52.0,261.08936
1357,55.0,261.11157
1358,48.0,260.82812
1359,52.0,261.2532
1360,56.0,261.27875
1361,51.0,260.89667
1362,52.0,261.017
1363,52.0,261.03775
1364,52.0,261.05893
1365,52.0,261.08054
1366,52.0,261.10257
1367,57.0,261.12506
1368,52.0,260.63782
1369,48.0,260.65082
1370,52.0,261.07227
1371,52.0,261.09415
1372,53.0,261.11646
1373,58.0,261.0372
1374,48.0,260.44614
1375,56.0,260.8634
1376,55.0,260.47287
1377,48.0,260.1764
1378,48.0,260.58817
1379,52.0,261.00833
1380,52.0,261.0289
1381,52.0,261.0499
1382,51.0,261.07132
1383,53.0,261.19522
1384,53.0,261.11758
1385,53.0,261.03836
1386,52.0,260.95752
1387,52.0,260.97705
1388,52.0,260.99698
1389,55.0,261.0173
1390,48.0,260.73193
1391,53.0,261.15503
1392,53.0,261.07657
1393,52.0,260.9965
1394,51.0,261.0168
1395,52.0,261.13962
1396,54.0,261.16287
1397,55.0,260.9825
1398,52.0,260.69644
1399,48.0,260.71063
1400,53.0,261.1333
1401,53.0,261.05438
1402,52.0,260.97385
1403,51.0,260.9937
1404,53.0,261.11603
1405,57.0,261.03677
1406,47.0,260.54773
1407,53.0,261.0691
1408,51.0,260.98886
1409,52.0,261.11108
1410,51.0,261.13376
1411,52.0,261.2589
1412,52.0,261.28458
1413,53.0,261.31076
1414,52.0,261.23547
1415,53.0,261.26068
1416,53.0,261.18436
1417,52.0,261.10648
1418,53.0,261.12906
1419,55.0,261.05005
1420,52.0,260.76535
1421,54.0,260.78094
1422,48.0,260.5928
1423,55.0,261.01306
1424,51.0,260.72763
1425,54.0,260.8445
1426,56.0,260.65765
1427,52.0,260.2629
1428,48.0,260.26825
1429,53.0,260.6819
1430,52.0,260.59375
1431,52.0,260.60587
1432,52.0,260.61823
1433,52.0,260.63083
1434,53.0,260.6437
1435,53.0,260.5548
1436,52.0,260.46408
1437,57.0,260.47354
1438,51.0,259.973
1439,57.0,260.07446
1440,48.0,259.56577
1441,52.0,259.96506
1442,52.0,259.96432
1443,52.0,259.9636
1444,53.0,259.96283
1445,53.0,259.86002
1446,52.0,259.75513
1447,53.0,259.75012
1448,52.0,259.64297
1449,51.0,259.63568
1450,53.0,259.7303
1451,52.0,259.62274
1452,52.0,259.61502
1453,53.0,259.60715
1454,51.0,259.4971
1455,55.0,259.58887
1456,49.0,259.27435
1457,50.0,259.56567
1458,48.0,259.7609
1459,52.0,260.16418
1460,52.0,260.1675
1461,53.0,260.17093
1462,56.0,260.0724
1463,55.0,259.6657
1464,51.0,259.35275
1465,46.0,259.4416
1466,49.0,260.04242
1467,52.0,260.3494
1468,52.0,260.3565
1469,54.0,260.36377
1470,51.0,260.1671
1471,51.0,260.27255
1472,53.0,260.38016
1473,52.0,260.2859
1474,52.0,260.29172
1475,51.0,260.29767
1476,52.0,260.4058
1477,52.0,260.41406
1478,53.0,260.42252
1479,52.0,260.3291
1480,52.0,260.33582
1481,53.0,260.34265
1482,53.0,260.2476
1483,51.0,260.1506
1484,53.0,260.2557
1485,57.0,260.15887
1486,49.0,259.65192
1487,48.0,259.95093
1488,52.0,260.3581
1489,52.0,260.3654
1490,53.0,260.37283
1491,52.0,260.2784
1492,51.0,260.2841
1493,52.0,260.39194
1494,52.0,260.39993
1495,52.0,260.40808
1496,52.0,260.4164
1497,52.0,260.4249
1498,53.0,260.43356
1499,52.0,260.34036
1500,52.0,260.3473
1501,53.0,260.35437
1502,53.0,260.25955
1503,47.0,260.1628
1504,53.0,260.67633
1505,53.0,260.5881
1506,56.0,260.49808
1507,53.0,260.10007
1508,51.0,260.00006
1509,48.0,260.1021
1510,52.0,260.51236
1511,52.0,260.5228
1512,53.0,260.53345
1513,52.0,260.4423
1514,55.0,260.4513
1515,52.0,260.15436
1516,48.0,260.1575
1517,52.0,260.56888
1518,51.0,260.58047
1519,48.0,260.69437
1520,52.0,261.1167
1521,52.0,261.13947
1522,52.0,261.16272
1523,53.0,261.18643
1524,53.0,261.1086
1525,53.0,261.0292
1526,52.0,260.94818
1527,52.0,260.96753
1528,53.0,260.98727
1529,52.0,260.9054
1530,53.0,260.92386
1531,52.0,260.84067
1532,53.0,260.85782
1533,53.0,260.7733
1534,50.0,260.687
1535,52.0,260.9051
1536,53.0,260.92355
1537,53.0,260.84036
1538,53.0,260.75546
1539,53.0,260.66885
1540,53.0,260.58047
1541,52.0,260.4903
1542,52.0,260.5003
1543,52.0,260.5105
1544,57.0,260.5209
1545,51.0,260.02133
1546,48.0,260.1238
1547,53.0,260.5345
1548,52.0,260.44336
1549,61.0,260.4524
1550,47.0,259.54324
1551,50.0,260.04413
1552,49.0,260.2491
1553,48.0,260.5603
1554,53.0,260.9799
1555,52.0,260.89786
1556,51.0,260.91617
1557,53.0,261.0369
1558,52.0,260.95602
1559,52.0,260.97552
1560,52.0,260.99542
1561,53.0,261.01572
1562,52.0,260.93442
1563,52.0,260.9535
1564,53.0,260.97293
1565,56.0,260.89075
1566,51.0,260.50076
1567,48.0,260.613
1568,53.0,261.0337
1569,53.0,260.95276
1570,52.0,260.87015
1571,52.0,260.8879
1572,52.0,260.906
1573,56.0,260.9245
1574,51.0,260.5352
1575,47.0,260.64813
1576,53.0,261.17154
1577,53.0,261.0934
1578,52.0,261.0137
1579,53.0,261.0344
1580,53.0,260.95346
1581,55.0,260.87088
1582,51.0,260.58252
1583,48.0,260.69644
1584,52.0,261.1188
1585,53.0,261.14163
1586,52.0,261.0629
1587,53.0,261.08456
1588,52.0,261.00467
1589,52.0,261.02518
1590,53.0,261.04608
1591,52.0,260.9654
1592,52.0,260.98508
1593,56.0,261.00516
1594,55.0,260.6175
1595,52.0,260.32397
1596,48.0,260.33057
1597,52.0,260.74548
1598,54.0,260.76068
1599,48.0,260.5721
1600,52.0,260.99194
1601,51.0,261.01218
1602,53.0,261.13486
1603,55.0,261.05597
1604,51.0,260.7714
1605,52.0,260.88916
1606,52.0,260.9073
1607,52.0,260.92578
1608,53.0,260.94467
1609,53.0,260.8619
1610,51.0,260.77747
1611,53.0,260.89536
1612,54.0,260.81158
1613,51.0,260.62405
1614,55.0,260.73883
1615,48.0,260.44778
1616,51.0,260.86508
1617,52.0,260.98477
1618,52.0,261.00485
1619,53.0,261.02536
1620,52.0,260.94424
1621,52.0,260.9635
1622,52.0,260.98315
1623,53.0,261.0032
1624,52.0,260.92163
1625,52.0,260.94043
1626,53.0,260.95963
1627,52.0,260.87717
1628,56.0,260.89505
1629,50.0,260.50516
1630,57.0,260.71954
1631,50.0,260.224
1632,55.0,260.43265
1633,51.0,260.13535
1634,48.0,260.24014
1635,52.0,260.6532
1636,55.0,260.6665
1637,55.0,260.37396
1638,51.0,260.07547
1639,50.0,260.17905
1640,48.0,260.38678
1641,52.0,260.80283
1642,52.0,260.8192
1643,52.0,260.83594
1644,55.0,260.853
1645,48.0,260.56427
1646,56.0,260.98395
1647,51.0,260.59586
1648,52.0,260.71005
1649,52.0,260.72455
1650,52.0,260.73932
1651,53.0,260.7544
1652,52.0,260.66776
1653,52.0,260.68137
1654,52.0,260.69525
1655,53.0,260.70944
1656,52.0,260.6219
1657,52.0,260.63458
1658,51.0,260.64752
1659,53.0,260.7628
1660,51.0,260.6763
1661,54.0,260.79214
1662,57.0,260.60422
1663,48.0,260.10632
1664,52.0,260.51666
1665,52.0,260.5272
1666,52.0,260.53793
1667,52.0,260.5489
1668,52.0,260.5601
1669,53.0,260.5715
1670,52.0,260.4811
1671,53.0,260.4909
1672,52.0,260.3989
1673,52.0,260.407
1674,52.0,260.4153
1675,53.0,260.42377
1676,52.0,260.33038
1677,52.0,260.33713
1678,53.0,260.344
1679,51.0,260.24896
1680,55.0,260.35608
1681,55.0,260.05722
1682,51.0,259.75226
1683,50.0,259.84924
1684,48.0,260.05026
1685,51.0,260.45944
1686,52.0,260.57086
1687,52.0,260.5825
1688,52.0,260.59436
1689,52.0,260.60648
1690,53.0,260.61884
1691,59.0,260.52942
1692,47.0,259.82593
1693,48.0,260.33258
1694,54.0,260.74753
1695,51.0,260.5587
1696,52.0,260.67212
1697,52.0,260.68582
1698,52.0,260.6998
1699,52.0,260.71408
1700,52.0,260.72864
1701,52.0,260.7435
1702,53.0,260.75867
1703,51.0,260.67212
1704,52.0,260.78787
1705,53.0,260.80396
1706,53.0,260.71832
1707,57.0,260.63095
1708,48.0,260.1336
1709,53.0,260.5445
1710,53.0,260.45355
1711,52.0,260.36078
1712,53.0,260.36813
1713,52.0,260.2736
1714,52.0,260.27917
1715,52.0,260.28485
1716,53.0,260.29065
1717,53.0,260.19455
1718,51.0,260.09647
1719,52.0,260.20047
1720,56.0,260.20456
1721,51.0,259.80057
1722,48.0,259.89853
1723,53.0,260.30463
1724,56.0,260.2088
1725,51.0,259.8049
1726,52.0,259.90295
1727,48.0,259.90097
1728,51.0,260.3071
1729,52.0,260.4154
1730,52.0,260.42386
1731,53.0,260.4325
1732,53.0,260.3393
1733,53.0,260.24417
1734,53.0,260.14713
1735,52.0,260.0481
1736,51.0,260.04907
1737,52.0,260.1521
1738,53.0,260.15518
1739,51.0,260.0563
1740,53.0,260.1595
1741,52.0,260.0607
1742,52.0,260.06192
1743,52.0,260.06317
1744,52.0,260.06445
1745,52.0,260.06577
1746,52.0,260.0671
1747,52.0,260.06848
1748,52.0,260.06985
1749,54.0,260.07126
1750,55.0,259.86862
1751,51.0,259.5598
1752,48.0,259.65286
1753,52.0,260.05396
1754,57.0,260.05505
1755,50.0,259.54596
1756,52.0,259.74075
1757,51.0,259.73544
1758,52.0,259.8321
1759,52.0,259.82864
1760,52.0,259.82513
1761,53.0,259.82156
1762,52.0,259.71588
1763,52.0,259.71008
1764,52.0,259.70416
1765,53.0,259.69812
1766,52.0,259.5899
1767,55.0,259.5815
1768,55.0,259.26685
1769,51.0,258.94577
1770,53.0,259.0263
1771,44.0,258.9044
1772,52.0,259.69833
1773,53.0,259.69217
1774,52.0,259.58383
1775,52.0,259.57532
1776,48.0,259.56665
1777,52.0,259.96597
1778,53.0,259.96527
1779,57.0,259.86252
1780,52.0,259.3495
1781,48.0,259.3362
1782,53.0,259.73083
1783,52.0,259.6233
1784,52.0,259.6156
1785,53.0,259.60776
1786,51.0,259.4977
1787,48.0,259.5895
1788,53.0,259.9893
1789,53.0,259.88702
1790,51.0,259.78268
1791,51.0,259.88028
1792,48.0,259.9799
1793,52.0,260.38763
1794,53.0,260.39554
1795,52.0,260.30157
1796,52.0,260.3077
1797,52.0,260.31396
1798,52.0,260.32037
1799,52.0,260.3269
1800,53.0,260.33356
1801,52.0,260.2383
1802,51.0,260.24316
1803,52.0,260.35016
1804,52.0,260.3573
1805,52.0,260.3646
1806,52.0,260.372
1807,55.0,260.37958
1808,50.0,260.08118
1809,51.0,260.2869
1810,52.0,260.39478
1811,52.0,260.40283
1812,53.0,260.41104
1813,52.0,260.31738
1814,48.0,260.32385
1815,52.0,260.73862
1816,52.0,260.7537
1817,54.0,260.76907
1818,51.0,260.5807
1819,53.0,260.69458
1820,53.0,260.60672
1821,52.0,260.51706
1822,52.0,260.5276
1823,55.0,260.53836
1824,47.0,260.24323
1825,53.0,260.7584
1826,52.0,260.6718
1827,52.0,260.68552
1828,53.0,260.6995
1829,52.0,260.61172
1830,51.0,260.6242
1831,52.0,260.73898
1832,53.0,260.75406
1833,57.0,260.66742
1834,48.0,260.17084
1835,53.0,260.5825
1836,53.0,260.49234
1837,52.0,260.40036
1838,56.0,260.4085
1839,53.0,260.00867
1840,44.0,259.9068
1841,53.0,260.72122
1842,52.0,260.6339
1843,53.0,260.64685
1844,52.0,260.558
1845,52.0,260.5694
1846,52.0,260.581
1847,52.0,260.59283
1848,52.0,260.60492
1849,55.0,260.61725
1850,48.0,260.3237
1851,53.0,260.73846
1852,52.0,260.6515
1853,52.0,260.66476
1854,53.0,260.6783
1855,59.0,260.59012
1856,48.0,259.88788
1857,51.0,260.29376
1858,48.0,260.4018
1859,52.0,260.81815
1860,52.0,260.83484
1861,52.0,260.85187
1862,52.0,260.86923
1863,52.0,260.88696
1864,53.0,260.90506
1865,52.0,260.8215
1866,52.0,260.83826
1867,55.0,260.85535
1868,51.0,260.56668
1869,50.0,260.6803
1870,52.0,260.89825
1871,56.0,260.91656
1872,51.0,260.5271
1873,52.0,260.6399
1874,52.0,260.65295
1875,52.0,260.66626
1876,53.0,260.67984
1877,52.0,260.59167
1878,53.0,260.60373
1879,53.0,260.514
1880,53.0,260.42245
1881,51.0,260.32904
1882,52.0,260.4378
1883,52.0,260.44672
1884,52.0,260.4558
1885,52.0,260.46512
1886,52.0,260.4746
1887,57.0,260.48428
1888,50.0,259.98395
1889,52.0,260.1877
1890,52.0,260.19153
1891,52.0,260.19543
1892,52.0,260.1994
1893,52.0,260.20346
1894,53.0,260.2076
1895,53.0,260.1098
1896,57.0,260.01
1897,51.0,259.5
1898,53.0,259.59183
1899,49.0,259.48145
1900,51.0,259.77698
1901,49.0,259.87445
1902,49.0,260.178
1903,53.0,260.48776
1904,52.0,260.3957
1905,53.0,260.40375
1906,52.0,260.30994
1907,52.0,260.31625
1908,52.0,260.3227
1909,53.0,260.32925
1910,52.0,260.23392
1911,52.0,260.23868
1912,55.0,260.24353
1913,48.0,259.94238
1914,52.0,260.34937
1915,53.0,260.35648
1916,52.0,260.26172
1917,53.0,260.26706
1918,52.0,260.17047
1919,53.0,260.17395
1920,51.0,260.07547
1921,52.0,260.17905
1922,52.0,260.18268
1923,52.0,260.1864
1924,53.0,260.1902
1925,52.0,260.09204
1926,57.0,260.0939
1927,52.0,259.5856
1928,49.0,259.57715
1929,52.0,259.87463
1930,52.0,259.87207
1931,53.0,259.86945
1932,52.0,259.76474
1933,51.0,259.75992
1934,52.0,259.85706
1935,53.0,259.85413
1936,52.0,259.7491
1937,53.0,259.744
1938,52.0,259.63672
1939,52.0,259.6293
1940,54.0,259.62173
1941,54.0,259.4099
1942,56.0,259.1938
1943,53.0,258.76917
1944,50.0,258.642
1945,48.0,258.81836
1946,52.0,259.2024
1947,52.0,259.1861
1948,52.0,259.16946
1949,52.0,259.1525
1950,53.0,259.1352
1951,53.0,259.0155
1952,51.0,258.89337
1953,52.0,258.97284
1954,53.0,258.95187
1955,53.0,258.82843
1956,55.0,258.70248
1957,51.0,258.36987
1958,48.0,258.43863
1959,57.0,258.81494
1960,47.0,258.28055
1961,52.0,258.75565
1962,52.0,258.73026
1963,52.0,258.70435
1964,52.0,258.6779
1965,53.0,258.6509
1966,51.0,258.52133
1967,53.0,258.5932
1968,52.0,258.46246
1969,52.0,258.43106
1970,51.0,258.39902
1971,52.0,258.46838
1972,52.0,258.4371
1973,53.0,258.4052
1974,53.0,258.27063
1975,55.0,258.1333
1976,48.0,257.78906
1977,53.0,258.1521
1978,52.0,258.01236
1979,53.0,257.97177
1980,53.0,257.82834
1981,52.0,257.68198
1982,52.0,257.63467
1983,53.0,257.5864
1984,52.0,257.4351
1985,56.0,257.38272
1986,53.0,256.92114
1987,50.0,256.75626
1988,49.0,256.89413
1989,48.0,257.13687
1990,53.0,257.4866
1991,53.0,257.33328
1992,52.0,257.17682
1993,52.0,257.1192
1994,53.0,257.0604
1995,52.0,256.89835
1996,53.0,256.83502
1997,52.0,256.6684
1998,53.0,256.6004
1999,52.0,256.429
2000,51.0,256.3561
2001,48.0,256.3838
2002,53.0,256.71814
2003,52.0,256.54913
2004,53.0,256.4787
2005,53.0,256.30478
2006,53.0,256.12732
2007,52.0,255.94624
2008,53.0,255.86351
2009,51.0,255.67705
2010,52.0,255.69086
2011,52.0,255.60292
2012,52.0,255.51318
2013,53.0,255.42162
2014,54.0,255.22614
2015,55.0,254.92462
2016,53.0,254.51491
2017,48.0,254.30092
2018,53.0,254.59277
2019,53.0,254.38037
2020,52.0,254.16364
2021,52.0,254.04453
2022,57.0,253.92299
2023,48.0,253.28876
2024,51.0,253.55995
2025,53.0,253.53055
2026,53.0,253.29646
2027,53.0,253.0576
2028,53.0,252.81387
2029,56.0,252.56517
2030,52.0,252.00526
2031,51.0,251.8421
2032,51.0,251.77765
2033,48.0,251.71187
2034,53.0,251.95088
2035,52.0,251.68457
2036,53.0,251.51486
2037,52.0,251.23965
2038,55.0,251.06087
2039,48.0,250.57231
2040,52.0,250.78807
2041,53.0,250.60007
2042,53.0,250.30618
2043,52.0,250.0063
2044,56.0,249.80235
2045,52.0,249.18607
2046,48.0,248.96538
2047,52.0,249.14833
2048,57.0,248.92686
2049,47.0,248.19067
2050,53.0,248.45987
2051,52.0,248.12231
2052,52.0,247.87991
2053,52.0,247.63257
2054,51.0,247.38017
2055,52.0,247.22466
2056,52.0,246.96393
2057,53.0,246.69789
2058,53.0,246.32437
2059,53.0,245.94322
2060,52.0,245.5543
2061,53.0,245.25949
2062,53.0,244.85661
2063,52.0,244.44551
2064,57.0,244.12807
2065,48.0,243.29395
2066,52.0,243.36116
2067,53.0,243.02159
2068,53.0,242.57304
2069,53.0,242.11534
2070,52.0,241.6483
2071,52.0,241.27377
2072,53.0,240.8916
2073,58.0,240.39958
2074,51.0,239.38731
2075,49.0,239.06868
2076,48.0,238.94763
2077,53.0,238.92615
2078,52.0,238.39403
2079,52.0,237.9531
2080,56.0,237.50316
2081,49.0,236.63586
2082,53.0,236.46516
2083,52.0,235.88281
2084,53.0,235.39062
2085,57.0,234.78635
2086,48.0,233.76158
2087,53.0,233.63426
2088,51.0,232.99414
2089,53.0,232.54503
2090,52.0,231.88268
2091,53.0,231.30885
2092,53.0,230.62128
2093,52.0,229.91966
2094,52.0,229.30577
2095,52.0,228.67935
2096,56.0,228.04016
2097,52.0,226.97975
2098,53.0,226.30586
2099,52.0,225.51617
2100,52.0,224.81242
2101,57.0,224.09431
2102,47.0,222.85133
2103,56.0,222.6034
2104,51.0,221.43202
2105,48.0,220.74695
2106,53.0,220.35402
2107,53.0,219.44287
2108,51.0,218.51312
2109,52.0,217.76848
2110,52.0,216.90662
2111,52.0,216.02716
2112,55.0,215.12976
2113,50.0,213.90791
2114,52.0,213.17134
2115,53.0,212.21565
2116,55.0,211.13841
2117,51.0,209.83511
2118,49.0,208.91338
2119,48.0,208.17691
2120,48.0,207.52745
2121,53.0,206.86473
2122,52.0,205.67828
2123,52.0,204.56967
2124,53.0,203.43845
2125,52.0,202.18208
2126,52.0,201.00212
2127,53.0,199.79808
2128,53.0,198.46742
2129,51.0,197.1096
2130,52.0,195.92816
2131,53.0,194.62057
2132,58.0,193.18425
2133,51.0,191.2084
2134,48.0,189.90652
2135,52.0,188.8842
2136,51.0,187.43286
2137,52.0,186.05392
2138,52.0,184.54482
2139,52.0,183.00491
2140,52.0,181.43358
2141,52.0,179.83018
2142,51.0,178.19406
2143,53.0,176.62659
2144,54.0,174.82304
2145,51.0,172.88066
2146,52.0,171.20474
2147,52.0,169.3926
2148,54.0,167.54346
2149,52.0,165.45251
2150,52.0,163.52298
2151,52.0,161.55406
2152,52.0,159.54497
2153,51.0,157.49486
2154,52.0,155.50494
2155,53.0,153.37239
2156,53.0,151.09427
2157,53.0,148.76965
2158,51.0,146.3976
2159,53.0,144.18121
2160,57.0,141.71552
2161,50.0,138.79134
2162,53.0,136.52177
2163,48.0,133.89977
2164,52.0,131.73445
2165,48.0,129.11679
2166,52.0,126.85386
2167,52.0,124.13659
2168,52.0,121.36387
2169,52.0,118.53456
2170,52.0,115.647514
2171,52.0,112.701546
2172,52.0,109.69546
2173,52.0,106.62802
2174,52.0,103.497986
2175,53.0,100.30407
2176,53.0,96.942924
2177,51.0,93.51318
2178,52.0,90.21754
2179,52.0,86.75259
2180,55.0,83.21693
2181,48.0,79.302986
2182,52.0,76.02345
2183,52.0,72.26883
2184,53.0,68.437584
2185,52.0,64.4261
2186,53.0,60.4348
2187,53.0,56.26
2188,52.0,52.0
