no,raw,smooth
0,52.0,52.16139
1,53.0,52.17932
2,52.0,52.08814
3,52.0,52.09793
4,55.0,52.108814
5,50.0,51.78757
6,50.0,51.98619
7,52.0,52.20688
8,52.0,52.229866
9,52.0,52.25541
10,52.0,52.283787
11,52.0,52.31532
12,53.0,52.350357
13,52.0,52.278175
14,52.0,52.309086
15,53.0,52.34343
16,52.0,52.27048
17,51.0,52.300537
18,52.0,52.445045
19,56.0,52.494495
20,53.0,52.105
21,52.0,52.005558
22,57.0,52.006176
23,51.0,51.451305
24,48.0,51.501453
25,52.0,51.890507
26,51.0,51.87834
27,52.0,51.975937
28,52.0,51.973263
29,53.0,51.97029
30,55.0,51.85588
31,52.0,51.506535
32,49.0,51.451706
33,48.0,51.724117
34,57.0,52.13791
35,54.0,51.59768
36,48.0,51.330753
37,52.0,51.70084
38,51.0,51.667603
39,52.0,51.741783
40,52.0,51.713093
41,51.0,51.681213
42,52.0,51.75691
43,52.0,51.7299
44,52.0,51.69989
45,52.0,51.666546
46,52.0,51.629498
47,53.0,51.58833
48,51.0,51.43148
49,54.0,51.479427
50,47.0,51.199364
51,48.0,51.665962
52,53.0,52.07329
53,53.0,51.970325
54,52.0,51.85592
55,52.0,51.839912
56,52.0,51.822124
57,52.0,51.80236
58,52.0,51.7804
59,52.0,51.756
60,51.0,51.72889
61,52.0,51.80988
62,52.0,51.788754
63,52.0,51.76528
64,52.0,51.7392
65,55.0,51.710224
66,44.0,51.344696
67,53.0,52.160774
68,53.0,52.067528
69,57.0,51.96392
70,51.0,51.404358
71,51.0,51.44929
72,48.0,51.499214
73,52.0,51.88802
74,52.0,51.87558
75,52.0,51.861755
76,53.0,51.846394
77,55.0,51.718216
78,51.0,51.353577
79,48.0,51.392868
80,58.0,51.769855
81,44.0,51.077618
82,52.0,51.86402
83,52.0,51.848915
84,52.0,51.832127
85,52.0,51.813477
86,52.0,51.79275
87,52.0,51.769726
88,52.0,51.74414
89,51.0,51.715714
90,52.0,51.79524
91,52.0,51.772488
92,51.0,51.747208
93,52.0,51.830235
94,52.0,51.81137
95,55.0,51.790413
96,48.0,51.433792
97,52.0,51.815327
98,52.0,51.794807
99,52.0,51.772007
100,52.0,51.746674
101,52.0,51.71853
102,52.0,51.687256
103,51.0,51.652508
104,53.0,51.72501
105,52.0,51.583347
106,55.0,51.537052
107,51.0,51.152283
108,51.0,51.169205
109,48.0,51.188007
110,51.0,51.542233
111,48.0,51.60248
112,52.0,52.002758
113,52.0,52.003067
114,52.0,52.00341
115,52.0,52.003788
116,52.0,52.004208
117,52.0,52.004677
118,52.0,52.005196
119,52.0,52.00577
120,51.0,52.006413
121,52.0,52.11824
122,52.0,52.13138
123,53.0,52.145977
124,52.0,52.051086
125,53.0,52.056763
126,50.0,51.95196
127,52.0,52.168846
128,52.0,52.187607
129,57.0,52.208454
130,51.0,51.67606
131,48.0,51.75118
132,52.0,52.16798
133,53.0,52.186646
134,52.0,52.096275
135,51.0,52.10697
136,53.0,52.229973
137,52.0,52.144417
138,52.0,52.160465
139,55.0,52.178295
140,52.0,51.864773
141,48.0,51.849747
142,56.0,52.2775
143,55.0,51.86389
144,48.0,51.515438
145,53.0,51.906044
146,52.0,51.784496
147,52.0,51.76055
148,52.0,51.733948
149,52.0,51.704388
150,53.0,51.671543
151,52.0,51.52394
152,52.0,51.471046
153,52.0,51.412273
154,51.0,51.34697
155,50.0,51.385525
156,53.0,51.539474
157,51.0,51.377197
158,47.0,51.419113
159,52.0,51.910126
160,52.0,51.90014
161,51.0,51.88904
162,52.0,51.987827
163,52.0,51.986477
164,52.0,51.984974
165,52.0,51.983303
166,52.0,51.98145
167,52.0,51.97939
168,53.0,51.9771
169,52.0,51.86345
170,52.0,51.848278
171,52.0,51.83142
172,52.0,51.81269
173,51.0,51.791878
174,52.0,51.879868
175,52.0,51.86652
176,52.0,51.85169
177,52.0,51.83521
178,51.0,51.8169
179,51.0,51.90767
180,52.0,52.008526
181,53.0,52.009476
182,55.0,51.899418
183,52.0,51.55491
184,53.0,51.505455
185,49.0,51.339397
186,48.0,51.59933
187,51.0,51.99926
188,52.0,52.11029
189,53.0,52.122547
190,52.0,52.025055
191,52.0,52.02784
192,52.0,52.030933
193,52.0,52.03437
194,52.0,52.03819
195,52.0,52.04243
196,52.0,52.047146
197,52.0,52.052383
198,52.0,52.058205
199,55.0,52.064674
200,51.0,51.73853
201,52.0,51.82059
202,55.0,51.800655
203,48.0,51.445175
204,51.0,51.827976
205,51.0,51.919975
206,52.0,52.022198
207,52.0,52.024666
208,52.0,52.02741
209,52.0,52.030453
210,55.0,52.033836
211,52.0,51.704266
212,50.0,51.671406
213,52.0,51.85712
214,54.0,51.841244
215,50.0,51.601383
216,52.0,51.779316
217,56.0,51.754795
218,50.0,51.283108
219,51.0,51.42568
220,52.0,51.47298
221,51.0,51.414425
222,48.0,51.460476
223,52.0,51.844975
224,52.0,51.82775
225,51.0,51.808613
226,51.0,51.89846
227,52.0,51.99829
228,52.0,51.9981
229,51.0,51.99789
230,53.0,52.108772
231,52.0,52.00975
232,51.0,52.010834
233,52.0,52.12315
234,53.0,52.136833
235,52.0,52.040928
236,52.0,52.045475
237,55.0,52.05053
238,52.0,51.722813
239,48.0,51.692017
240,52.0,52.10224
241,53.0,52.1136
242,52.0,52.015114
243,51.0,52.016792
244,56.0,52.129772
245,48.0,51.69975
246,52.0,52.110836
247,52.0,52.123154
248,52.0,52.136837
249,51.0,52.152042
250,52.0,52.280052
251,52.0,52.31117
252,51.0,52.345745
253,52.0,52.495277
254,52.0,52.55031
255,53.0,52.611454
256,52.0,52.568283
257,55.0,52.631428
258,55.0,52.368256
259,54.0,52.07584
260,52.0,51.862045
261,52.0,51.846718
262,55.0,51.82969
263,52.0,51.477432
264,51.0,51.41937
265,47.0,51.46597
266,52.0,51.96219
267,52.0,51.95799
268,52.0,51.95332
269,52.0,51.948135
270,51.0,51.942375
271,52.0,52.047085
272,52.0,52.05232
273,53.0,52.058132
274,55.0,51.953484
275,48.0,51.614983
276,52.0,52.01665
277,52.0,52.0185
278,56.0,52.020557
279,47.0,51.5784
280,52.0,52.087112
281,52.0,52.096794
282,52.0,52.10755
283,52.0,52.119503
284,52.0,52.132782
285,52.0,52.147537
286,52.0,52.16393
287,52.0,52.182144
288,52.0,52.20238
289,53.0,52.22487
290,53.0,52.138744
291,53.0,52.043053
292,52.0,51.936726
293,50.0,51.929695
294,52.0,52.144108
295,52.0,52.160122
296,53.0,52.177914
297,55.0,52.086575
298,52.0,51.762863
299,50.0,51.736515
300,52.0,51.929462
301,52.0,51.921627
302,51.0,51.912918
303,53.0,52.014355
304,55.0,51.904842
305,48.0,51.560936
306,52.0,51.956596
307,52.0,51.951775
308,51.0,51.94642
309,52.0,52.05158
310,52.0,52.057312
311,52.0,52.063683
312,53.0,52.07076
313,52.0,51.96751
314,53.0,51.9639
315,52.0,51.84878
316,52.0,51.83198
317,52.0,51.813313
318,55.0,51.792572
319,50.0,51.43619
320,48.0,51.59577
321,52.0,51.995304
322,52.0,51.99478
323,55.0,51.9942
324,48.0,51.660225
325,52.0,52.066917
326,52.0,52.074352
327,52.0,52.082615
328,53.0,52.091797
329,53.0,51.990887
330,52.0,51.878765
331,52.0,51.865295
332,52.0,51.85033
333,53.0,51.833702
334,53.0,51.704117
335,52.0,51.56013
336,50.0,51.511257
337,48.0,51.679176
338,52.0,52.087975
339,57.0,52.09775
340,47.0,51.55306
341,52.0,52.058956
342,53.0,52.065506
343,53.0,51.961678
344,51.0,51.84631
345,55.0,51.940346
346,48.0,51.600388
347,51.0,52.00043
348,52.0,52.111595
349,52.0,52.123997
350,53.0,52.137775
351,53.0,52.041977
352,52.0,51.93553
353,52.0,51.928368
354,51.0,51.92041
355,52.0,52.022682
356,52.0,52.025204
357,51.0,52.028004
358,52.0,52.14223
359,52.0,52.158035
360,53.0,52.175594
361,52.0,52.083996
362,52.0,52.09333
363,53.0,52.103703
364,51.0,52.004116
365,52.0,52.11569
366,52.0,52.128544
367,52.0,52.142826
368,52.0,52.158695
369,53.0,52.17633
370,52.0,52.084812
371,52.0,52.09424
372,57.0,52.10471
373,53.0,51.560787
374,48.0,51.40088
375,50.0,51.778755
376,52.0,51.976395
377,52.0,51.973774
378,53.0,51.97086
379,51.0,51.856514
380,52.0,51.951687
381,52.0,51.94632
382,53.0,51.940357
383,52.0,51.82262
384,54.0,51.802914
385,47.0,51.558792
386,52.0,52.065327
387,53.0,52.072586
388,51.0,51.969543
389,52.0,52.077274
390,52.0,52.08586
391,52.0,52.0954
392,52.0,52.106003
393,56.0,52.117783
394,51.0,51.686428
395,52.0,51.7627
396,53.0,51.736332
397,52.0,51.59593
398,54.0,51.551033
399,51.0,51.278927
400,47.0,51.30992
401,52.0,51.788803
402,52.0,51.76534
403,52.0,51.739265
404,52.0,51.710297
405,51.0,51.67811
406,52.0,51.753456
407,53.0,51.726063
408,50.0,51.584515
409,51.0,51.760574
410,48.0,51.845085
411,52.0,52.27232
412,53.0,52.302578
413,52.0,52.22509
414,53.0,52.2501
415,51.0,52.16678
416,52.0,52.296425
417,52.0,52.32936
418,52.0,52.36596
419,53.0,52.40662
420,52.0,52.34069
421,52.0,52.378544
422,52.0,52.420605
423,57.0,52.46734
424,50.0,51.96371
425,56.0,52.181904
426,51.0,51.757675
427,47.0,51.841866
428,52.0,52.379852
429,52.0,52.42206
430,56.0,52.468956
431,52.0,52.076622
432,52.0,52.085136
433,52.0,52.094597
434,52.0,52.105106
435,52.0,52.116787
436,51.0,52.129765
437,52.0,52.2553
438,52.0,52.283665
439,52.0,52.31518
440,52.0,52.3502
441,52.0,52.389114
442,52.0,52.43235
443,52.0,52.48039
444,52.0,52.533764
445,57.0,52.59307
446,52.0,52.103413
447,55.0,52.114902
448,51.0,51.79434
449,50.0,51.882603
450,52.0,52.09178
451,54.0,52.10198
452,52.0,51.891087
453,53.0,51.878986
454,48.0,51.754433
455,53.0,52.171593
456,52.0,52.07955
457,52.0,52.08839
458,52.0,52.098213
459,52.0,52.109127
460,52.0,52.121254
461,51.0,52.134727
462,52.0,52.26081
463,52.0,52.28979
464,53.0,52.32199
465,52.0,52.24666
466,52.0,52.274067
467,51.0,52.30452
468,56.0,52.44947
469,52.0,52.05497
470,52.0,52.061077
471,51.0,52.067863
472,53.0,52.18652
473,52.0,52.096134
474,52.0,52.106815
475,53.0,52.118683
476,51.0,52.02076
477,54.0,52.134182
478,55.0,51.92687
479,50.0,51.58541
480,48.0,51.76157
481,52.0,52.179523
482,53.0,52.19947
483,55.0,52.110527
484,48.0,51.789474
485,57.0,52.21053
486,55.0,51.678368
487,51.0,51.3093
488,47.0,51.34367
489,48.0,51.8263
490,53.0,52.25145
491,53.0,52.168278
492,52.0,52.075867
493,52.0,52.084297
494,52.0,52.093662
495,52.0,52.10407
496,52.0,52.11563
497,53.0,52.12848
498,53.0,52.031647
499,51.0,51.924053
500,53.0,52.02673
501,52.0,51.91859
502,52.0,51.909546
503,52.0,51.899494
504,52.0,51.88833
505,53.0,51.87592
506,55.0,51.751022
507,49.0,51.390026
508,48.0,51.655582
509,52.0,52.06176
510,53.0,52.068623
511,51.0,51.965137
512,53.0,52.07238
513,53.0,51.969315
514,51.0,51.854797
515,52.0,51.94978
516,52.0,51.9442
517,52.0,51.938
518,53.0,51.93111
519,51.0,51.812347
520,52.0,51.90261
521,52.0,51.89179
522,51.0,51.879765
523,55.0,51.97752
524,48.0,51.64169
525,52.0,52.046326
526,53.0,52.051476
527,56.0,51.946087
528,52.0,51.495655
529,50.0,51.439617
530,48.0,51.599575
531,52.0,51.99953
532,52.0,51.99948
533,53.0,51.999424
534,55.0,51.888252
535,51.0,51.542503
536,48.0,51.602783
537,51.0,52.003094
538,55.0,52.11455
539,48.0,51.79395
540,52.0,52.2155
541,52.0,52.239445
542,52.0,52.266052
543,52.0,52.295612
544,54.0,52.328457
545,51.0,52.14273
546,52.0,52.269703
547,52.0,52.29967
548,52.0,52.33297
549,51.0,52.36997
550,52.0,52.52219
551,52.0,52.58021
552,53.0,52.64468
553,52.0,52.6052
554,55.0,52.672447
555,53.0,52.413834
556,52.0,52.348705
557,52.0,52.38745
558,53.0,52.430504
559,57.0,52.36723
560,50.0,51.852478
561,52.0,52.05831
562,52.0,52.064793
563,57.0,52.07199
564,55.0,51.524437
565,51.0,51.138264
566,49.0,51.15363
567,48.0,51.39292
568,52.0,51.769917
569,51.0,51.74435
570,50.0,51.82706
571,52.0,52.030067
572,52.0,52.03341
573,52.0,52.03712
574,57.0,52.041245
575,48.0,51.490273
576,52.0,51.878082
577,52.0,51.864536
578,52.0,51.849487
579,52.0,51.832764
580,52.0,51.814182
581,52.0,51.793537
582,51.0,51.7706
583,52.0,51.856224
584,52.0,51.84025
585,50.0,51.8225
586,52.0,52.024998
587,52.0,52.027775
588,57.0,52.03086
589,53.0,51.478733
590,44.0,51.309704
591,52.0,52.12189
592,52.0,52.135433
593,53.0,52.150482
594,52.0,52.056095
595,52.0,52.06233
596,52.0,52.069256
597,52.0,52.07695
598,52.0,52.085503
599,56.0,52.095005
600,48.0,51.66112
601,52.0,52.067917
602,54.0,52.075462
603,56.0,51.861626
604,54.0,51.40181
605,47.0,51.11312
606,48.0,51.570133
607,52.0,51.966816
608,52.0,51.96313
609,52.0,51.959034
610,52.0,51.954483
611,52.0,51.949425
612,52.0,51.943806
613,53.0,51.93756
614,53.0,51.819515
615,57.0,51.68835
616,53.0,51.098167
617,51.0,50.886856
618,46.0,50.874287
619,51.0,51.41588
620,51.0,51.46209
621,48.0,51.513435
622,52.0,51.90382
623,52.0,51.893135
624,52.0,51.881264
625,52.0,51.868073
626,51.0,51.853413
627,52.0,51.94824
628,52.0,51.942486
629,51.0,51.936096
630,53.0,52.04011
631,51.0,51.93346
632,52.0,52.03718
633,52.0,52.041313
634,53.0,52.045902
635,51.0,51.939896
636,52.0,52.04433
637,52.0,52.049255
638,52.0,52.05473
639,53.0,52.06081
640,52.0,51.95646
641,52.0,51.951622
642,53.0,51.946247
643,54.0,51.829166
644,58.0,51.587963
645,50.0,50.875515
646,47.0,50.972797
647,48.0,51.41422
648,52.0,51.79358
649,52.0,51.770645
650,51.0,51.745163
651,51.0,51.82796
652,51.0,51.91996
653,52.0,52.022182
654,52.0,52.024647
655,53.0,52.027386
656,51.0,51.91932
657,52.0,52.02147
658,51.0,52.023857
659,53.0,52.137623
660,52.0,52.041805
661,52.0,52.04645
662,51.0,52.051613
663,52.0,52.16846
664,52.0,52.18718
665,54.0,52.207977
666,50.0,52.00886
667,53.0,52.23207
668,52.0,52.146748
669,53.0,52.163055
670,52.0,52.070065
671,52.0,52.07785
672,57.0,52.086502
673,52.0,51.540558
674,47.0,51.48951
675,52.0,51.988346
676,51.0,51.987053
677,52.0,52.09673
678,51.0,52.10748
679,52.0,52.230537
680,54.0,52.256153
681,50.0,52.062393
682,53.0,52.29155
683,55.0,52.212837
684,52.0,51.903152
685,50.0,51.89239
686,52.0,52.102657
687,52.0,52.114063
688,52.0,52.12674
689,52.0,52.140823
690,52.0,52.15647
691,52.0,52.17386
692,56.0,52.193176
693,50.0,51.7702
694,52.0,51.96689
695,56.0,51.96321
696,48.0,51.514683
697,52.0,51.905205
698,56.0,51.894672
699,51.0,51.43853
700,46.0,51.48726
701,52.0,52.09696
702,52.0,52.10773
703,52.0,52.1197
704,52.0,52.133003
705,52.0,52.14778
706,52.0,52.164204
707,52.0,52.18245
708,56.0,52.20272
709,52.0,51.780804
710,55.0,51.75645
711,47.0,51.396057
712,51.0,51.88451
713,51.0,51.98279
714,53.0,52.091995
715,52.0,51.991108
716,52.0,51.99012
717,52.0,51.98902
718,52.0,51.9878
719,57.0,51.986446
720,55.0,51.429386
721,51.0,51.032654
722,49.0,51.036285
723,48.0,51.26254
724,52.0,51.625046
725,55.0,51.583385
726,48.0,51.203762
727,48.0,51.55974
728,52.0,51.955265
729,52.0,51.950294
730,52.0,51.94477
731,52.0,51.938633
732,52.0,51.931816
733,52.0,51.92424
734,52.0,51.91582
735,52.0,51.906467
736,53.0,51.896076
737,52.0,51.77342
738,55.0,51.748245
739,48.0,51.38694
740,51.0,51.763268
741,52.0,51.84808
742,52.0,51.8312
743,52.0,51.812447
744,51.0,51.791607
745,52.0,51.879566
746,52.0,51.866184
747,51.0,51.851315
748,52.0,51.945908
749,52.0,51.9399
750,52.0,51.933224
751,54.0,51.925804
752,53.0,51.69534
753,53.0,51.55038
754,46.0,51.389313
755,55.0,51.98813
756,48.0,51.653477
757,52.0,52.05942
758,55.0,52.066025
759,55.0,51.74003
760,51.0,51.37781
761,49.0,51.419792
762,48.0,51.688656
763,53.0,52.098507
764,52.0,51.998344
765,52.0,51.99816
766,52.0,51.99796
767,52.0,51.997734
768,52.0,51.997482
769,56.0,51.997204
770,49.0,51.552452
771,48.0,51.83606
772,52.0,52.26229
773,52.0,52.291435
774,52.0,52.32382
775,53.0,52.3598
776,53.0,52.288666
777,53.0,52.20963
778,53.0,52.12181
779,56.0,52.02424
780,52.0,51.58249
781,47.0,51.5361
782,52.0,52.04011
783,52.0,52.044567
784,53.0,52.04952
785,51.0,51.943913
786,51.0,52.048794
787,53.0,52.16533
788,52.0,52.07259
789,52.0,52.080658
790,52.0,52.08962
791,52.0,52.099575
792,52.0,52.11064
793,52.0,52.122936
794,52.0,52.136597
795,52.0,52.151775
796,53.0,52.16864
797,52.0,52.07627
798,52.0,52.084747
799,52.0,52.094166
800,57.0,52.10463
801,49.0,51.5607
802,48.0,51.845222
803,52.0,52.272472
804,52.0,52.30275
805,52.0,52.336388
806,53.0,52.373764
807,55.0,52.304184
808,51.0,52.00465
809,50.0,52.11628
810,52.0,52.35142
811,52.0,52.39047
812,53.0,52.433853
813,52.0,52.37095
814,52.0,52.412167
815,53.0,52.457962
816,58.0,52.39774
817,48.0,51.77527
818,52.0,52.194744
819,51.0,52.21638
820,53.0,52.35154
821,52.0,52.27949
822,52.0,52.310547
823,52.0,52.34505
824,52.0,52.38339
825,52.0,52.425987
826,52.0,52.47332
827,52.0,52.525913
828,52.0,52.584347
829,52.0,52.649277
830,52.0,52.72142
831,52.0,52.80158
832,58.0,52.890644
833,51.0,52.32294
834,53.0,52.469936
835,55.0,52.41104
836,53.0,52.12338
837,49.0,52.025978
838,52.0,52.362198
839,55.0,52.402443
840,55.0,52.113827
841,48.0,51.793144
842,52.0,52.214607
843,52.0,52.238453
844,53.0,52.26495
845,52.0,52.18328
846,58.0,52.203648
847,47.0,51.559612
848,52.0,52.066235
849,53.0,52.073593
850,52.0,51.97066
851,52.0,51.967403
852,52.0,51.963783
853,52.0,51.95976
854,52.0,51.955288
855,52.0,51.95032
856,52.0,51.9448
857,52.0,51.938667
858,52.0,51.931854
859,52.0,51.924282
860,52.0,51.91587
861,52.0,51.906525
862,55.0,51.89614
863,49.0,51.55127
864,49.0,51.834743
865,52.0,52.149715
866,52.0,52.16635
867,52.0,52.184834
868,53.0,52.20537
869,52.0,52.11708
870,53.0,52.13009
871,52.0,52.033436
872,52.0,52.03715
873,52.0,52.04128
874,53.0,52.045864
875,53.0,51.93985
876,58.0,51.822056
877,49.0,51.13562
878,48.0,51.37291
879,48.0,51.74768
880,52.0,52.164093
881,53.0,52.182327
882,52.0,52.091476
883,51.0,52.101643
884,53.0,52.224052
885,53.0,52.13784
886,53.0,52.042046
887,52.0,51.935608
888,56.0,51.928455
889,52.0,51.476067
890,48.0,51.41785
891,55.0,51.797615
892,52.0,51.441795
893,47.0,51.379772
894,51.0,51.866413
895,52.0,51.962685
896,52.0,51.958538
897,52.0,51.95393
898,52.0,51.94881
899,53.0,51.943123
900,51.0,51.825695
901,52.0,51.917442
902,52.0,51.908268
903,52.0,51.898075
904,52.0,51.88675
905,52.0,51.874165
906,55.0,51.860184
907,48.0,51.51132
908,51.0,51.901466
909,52.0,52.001633
910,52.0,52.001816
911,51.0,52.002018
912,52.0,52.113358
913,52.0,52.125954
914,52.0,52.13995
915,56.0,52.1555
916,55.0,51.728336
917,49.0,51.36482
918,52.0,51.627575
919,52.0,51.586197
920,53.0,51.54022
921,51.0,51.37802
922,48.0,51.420025
923,52.0,51.80003
924,52.0,51.777813
925,52.0,51.753128
926,53.0,51.725697
927,52.0,51.58411
928,52.0,51.537903
929,52.0,51.48656
930,52.0,51.429512
931,51.0,51.366127
932,52.0,51.40681
933,52.0,51.3409
934,52.0,51.267666
935,51.0,51.186295
936,52.0,51.206997
937,48.0,51.118885
938,51.0,51.46543
939,48.0,51.51715
940,52.0,51.907948
941,52.0,51.89772
942,53.0,51.886356
943,55.0,51.76262
944,51.0,51.402912
945,48.0,51.447685
946,53.0,51.830765
947,52.0,51.70085
948,52.0,51.667614
949,51.0,51.630684
950,52.0,51.700764
951,52.0,51.667515
952,56.0,51.630573
953,53.0,51.145084
954,47.0,50.938984
955,47.0,51.376648
956,52.0,51.86294
957,52.0,51.847713
958,52.0,51.830795
959,51.0,51.811996
960,52.0,51.90222
961,52.0,51.891357
962,52.0,51.879288
963,52.0,51.865875
964,52.0,51.850975
965,52.0,51.834415
966,51.0,51.816017
967,52.0,51.90669
968,53.0,51.89632
969,55.0,51.773693
970,52.0,51.415215
971,46.0,51.35024
972,52.0,51.944714
973,51.0,51.938572
974,53.0,52.042862
975,52.0,51.936516
976,53.0,51.929462
977,52.0,51.810516
978,52.0,51.789463
979,52.0,51.76607
980,52.0,51.740078
981,51.0,51.711197
982,51.0,51.790222
983,52.0,51.87803
984,51.0,51.864475
985,52.0,51.96053
986,52.0,51.956146
987,52.0,51.951275
988,53.0,51.94586
989,55.0,51.82874
990,52.0,51.47638
991,51.0,51.4182
992,48.0,51.464672
993,52.0,51.849636
994,53.0,51.832928
995,54.0,51.703255
996,51.0,51.44806
997,50.0,51.49785
998,48.0,51.664276
999,55.0,52.07142
1000,48.0,51.74602
1001,52.0,52.162247
1002,52.0,52.180275
1003,53.0,52.200306
1004,52.0,52.111454
1005,52.0,52.123837
1006,52.0,52.137596
1007,53.0,52.152885
1008,53.0,52.058765
1009,52.0,51.954185
1010,52.0,51.949097
1011,51.0,51.943443
1012,52.0,52.048275
1013,52.0,52.05364
1014,56.0,52.059597
1015,48.0,51.621777
1016,52.0,52.024197
1017,52.0,52.026886
1018,52.0,52.029873
1019,52.0,52.03319
1020,53.0,52.03688
1021,52.0,51.92987
1022,55.0,51.92208
1023,52.0,51.580093
1024,47.0,51.533436
1025,53.0,52.03715
1026,52.0,51.930172
1027,53.0,51.922413
1028,56.0,51.802685
1029,53.0,51.33632
1030,49.0,51.151466
1031,48.0,51.39052
1032,48.0,51.767246
1033,52.0,52.185833
1034,52.0,52.206482
1035,53.0,52.229424
1036,52.0,52.143806
1037,52.0,52.159786
1038,52.0,52.17754
1039,51.0,52.197266
1040,52.0,52.3303
1041,57.0,52.367
1042,52.0,51.852222
1043,52.0,51.835804
1044,51.0,51.817562
1045,51.0,51.908405
1046,52.0,52.009342
1047,52.0,52.01038
1048,52.0,52.011536
1049,52.0,52.012817
1050,56.0,52.01424
1051,51.0,51.57138
1052,48.0,51.63487
1053,52.0,52.038746
1054,52.0,52.043053
1055,52.0,52.047836
1056,55.0,52.053154
1057,48.0,51.725727
1058,52.0,52.139698
1059,51.0,52.15522
1060,53.0,52.28358
1061,52.0,52.20398
1062,52.0,52.226643
1063,51.0,52.251827
1064,52.0,52.390923
1065,53.0,52.43436
1066,52.0,52.371513
1067,52.0,52.412792
1068,52.0,52.45866
1069,57.0,52.509624
1070,55.0,52.010693
1071,51.0,51.678547
1072,49.0,51.753944
1073,52.0,52.059937
1074,52.0,52.066597
1075,52.0,52.073997
1076,57.0,52.082222
1077,48.0,51.535805
1078,56.0,51.928673
1079,51.0,51.476307
1080,48.0,51.529232
1081,52.0,51.92137
1082,52.0,51.912636
1083,51.0,51.902927
1084,52.0,52.003254
1085,52.0,52.003616
1086,55.0,52.00402
1087,49.0,51.671135
1088,52.0,51.967926
1089,52.0,51.964363
1090,51.0,51.960403
1091,57.0,52.06712
1092,47.0,51.519024
1093,53.0,52.021137
1094,52.0,51.912376
1095,52.0,51.90264
1096,52.0,51.891823
1097,52.0,51.879803
1098,52.0,51.866447
1099,51.0,51.85161
1100,53.0,51.946236
1101,53.0,51.82915
1102,52.0,51.69906
1103,53.0,51.665623
1104,55.0,51.51736
1105,50.0,51.1304
1106,49.0,51.256004
1107,48.0,51.50667
1108,52.0,51.896305
1109,53.0,51.884785
1110,52.0,51.760876
1111,52.0,51.734306
1112,52.0,51.704784
1113,52.0,51.67198
1114,52.0,51.635536
1115,53.0,51.59504
1116,48.0,51.438934
1117,52.0,51.82104
1118,52.0,51.80116
1119,51.0,51.779068
1120,52.0,51.865635
1121,53.0,51.850704
1122,48.0,51.723007
1123,53.0,52.136677
1124,52.0,52.040756
1125,53.0,52.045284
1126,52.0,51.93921
1127,52.0,51.932453
1128,52.0,51.92495
1129,56.0,51.91661
1130,51.0,51.462906
1131,48.0,51.514343
1132,52.0,51.904827
1133,52.0,51.894253
1134,53.0,51.882504
1135,53.0,51.75834
1136,47.0,51.62038
1137,53.0,52.13376
1138,52.0,52.037514
1139,52.0,52.041683
1140,54.0,52.046314
1141,57.0,51.82924
1142,51.0,51.25471
1143,47.0,51.283016
1144,48.0,51.758907
1145,51.0,52.176567
1146,53.0,52.3073
1147,52.0,52.230335
1148,53.0,52.255928
1149,52.0,52.173256
1150,53.0,52.19251
1151,56.0,52.10279
1152,49.0,51.66977
1153,53.0,51.96641
1154,52.0,51.85157
1155,53.0,51.83508
1156,52.0,51.705647
1157,55.0,51.672943
1158,46.0,51.303272
1159,52.0,51.89253
1160,51.0,51.88059
1161,52.0,51.978436
1162,52.0,51.97604
1163,52.0,51.973377
1164,51.0,51.97042
1165,51.0,52.078247
1166,55.0,52.198055
1167,52.0,51.88673
1168,51.0,51.874146
1169,52.0,51.971275
1170,51.0,51.968082
1171,52.0,52.07565
1172,52.0,52.084057
1173,53.0,52.093395
1174,52.0,51.992664
1175,52.0,51.99185
1176,51.0,51.990948
1177,52.0,52.101055
1178,51.0,52.112286
1179,53.0,52.235878
1180,55.0,52.150978
1181,52.0,51.834423
1182,52.0,51.816025
1183,51.0,51.795586
1184,47.0,51.883987
1185,52.0,52.426655
1186,53.0,52.47406
1187,52.0,52.415627
1188,53.0,52.461807
1189,55.0,52.40201
1190,51.0,52.11335
1191,52.0,52.23706
1192,52.0,52.2634
1193,52.0,52.292667
1194,52.0,52.325188
1195,53.0,52.36132
1196,57.0,52.29036
1197,47.0,51.767067
1198,52.0,52.29674
1199,52.0,52.329712
1200,52.0,52.36635
1201,52.0,52.407055
1202,52.0,52.452286
1203,52.0,52.50254
1204,54.0,52.55838
1205,50.0,52.3982
1206,53.0,52.66467
1207,52.0,52.62741
1208,53.0,52.697124
1209,51.0,52.663475
1210,57.0,52.84831
1211,52.0,52.38701
1212,52.0,52.43001
1213,52.0,52.47779
1214,52.0,52.53088
1215,52.0,52.589867
1216,56.0,52.655407
1217,55.0,52.283787
1218,52.0,51.981987
1219,51.0,51.979984
1220,52.0,52.088875
1221,52.0,52.09875
1222,52.0,52.109722
1223,52.0,52.121914
1224,52.0,52.13546
1225,54.0,52.150513
1226,52.0,51.945015
1227,51.0,51.938908
1228,52.0,52.043236
1229,52.0,52.04804
1230,52.0,52.053375
1231,52.0,52.059307
1232,52.0,52.0659
1233,52.0,52.073223
1234,56.0,52.08136
1235,49.0,51.645958
1236,53.0,51.939953
1237,55.0,51.82217
1238,51.0,51.469078
1239,48.0,51.521202
1240,52.0,51.91245
1241,52.0,51.90272
1242,52.0,51.891914
1243,49.0,51.879906
1244,52.0,52.199894
1245,52.0,52.222107
1246,52.0,52.246788
1247,52.0,52.274208
1248,52.0,52.304676
1249,57.0,52.33853
1250,47.0,51.82059
1251,52.0,52.356213
1252,52.0,52.395794
1253,57.0,52.439774
1254,55.0,51.933083
1255,51.0,51.592316
1256,48.0,51.65813
1257,56.0,52.06459
1258,48.0,51.627327
1259,52.0,52.030365
1260,52.0,52.03374
1261,52.0,52.03749
1262,52.0,52.041656
1263,56.0,52.046284
1264,54.0,51.606983
1265,44.0,51.34109
1266,52.0,52.15677
1267,52.0,52.174187
1268,53.0,52.193542
1269,52.0,52.10394
1270,52.0,52.11549
1271,52.0,52.128323
1272,53.0,52.142582
1273,55.0,52.047318
1274,48.0,51.719242
1275,52.0,52.132492
1276,52.0,52.147213
1277,53.0,52.16357
1278,52.0,52.070637
1279,56.0,52.078487
1280,48.0,51.642765
1281,52.0,52.04752
1282,53.0,52.0528
1283,52.0,51.947556
1284,52.0,51.94173
1285,52.0,51.935257
1286,53.0,51.928062
1287,52.0,51.80896
1288,52.0,51.787735
1289,52.0,51.76415
1290,55.0,51.737946
1291,51.0,51.375496
1292,49.0,51.41722
1293,55.0,51.685802
1294,54.0,51.31756
1295,46.0,51.01951
1296,48.0,51.577236
1297,52.0,51.97471
1298,52.0,51.971897
1299,52.0,51.968777
1300,52.0,51.96531
1301,52.0,51.961456
1302,52.0,51.957172
1303,53.0,51.952415
1304,52.0,51.836018
1305,52.0,51.8178
1306,51.0,51.797554
1307,52.0,51.886173
1308,53.0,51.873528
1309,53.0,51.748367
1310,48.0,51.6093
1311,53.0,52.010334
1312,51.0,51.900375
1313,52.0,52.00042
1314,52.0,52.000465
1315,53.0,52.00052
1316,55.0,51.88947
1317,51.0,51.543858
1318,52.0,51.60429
1319,48.0,51.56032
1320,52.0,51.955917
1321,53.0,51.95102
1322,52.0,51.83447
1323,52.0,51.81608
1324,55.0,51.795643
1325,48.0,51.439606
1326,52.0,51.821785
1327,52.0,51.801983
1328,51.0,51.779984
1329,52.0,51.86665
1330,51.0,51.851833
1331,52.0,51.946484
1332,56.0,51.940536
1333,52.0,51.489487
1334,54.0,51.432762
1335,44.0,51.147514
1336,52.0,51.94168
1337,52.0,51.935204
1338,52.0,51.928005
1339,52.0,51.920006
1340,51.0,51.911118
1341,52.0,52.012356
1342,52.0,52.01373
1343,52.0,52.015255
1344,54.0,52.016953
1345,52.0,51.79661
1346,48.0,51.774014
1347,53.0,52.19335
1348,53.0,52.103725
1349,53.0,52.004143
1350,51.0,51.893494
1351,52.0,51.992775
1352,53.0,51.991974
1353,51.0,51.879974
1354,53.0,51.977753
1355,51.0,51.86417
1356,52.0,51.960194
1357,52.0,51.955772
1358,52.0,51.95086
1359,52.0,51.9454
1360,52.0,51.939335
1361,52.0,51.932594
1362,52.0,51.925106
1363,51.0,51.916786
1364,52.0,52.018654
1365,51.0,52.02073
1366,52.0,52.134148
1367,52.0,52.14905
1368,56.0,52.165615
1369,51.0,51.739574
1370,56.0,51.82175
1371,48.0,51.357502
1372,48.0,51.73056
1373,51.0,52.14507
1374,52.0,52.2723
1375,53.0,52.30256
1376,53.0,52.225067
1377,52.0,52.138966
1378,52.0,52.154408
1379,55.0,52.171566
1380,48.0,51.857296
1381,52.0,52.28589
1382,53.0,52.317654
1383,54.0,52.24184
1384,51.0,52.04649
1385,53.0,52.16277
1386,52.0,52.069748
1387,51.0,52.0775
1388,51.0,52.197224
1389,52.0,52.330254
1390,52.0,52.36695
1391,52.0,52.407722
1392,52.0,52.453026
1393,52.0,52.503365
1394,55.0,52.559296
1395,51.0,52.28811
1396,53.0,52.431236
1397,55.0,52.368042
1398,51.0,52.075603
1399,52.0,52.195118
1400,52.0,52.216797
1401,51.0,52.240887
1402,53.0,52.378765
1403,52.0,52.309742
1404,52.0,52.34416
1405,56.0,52.3824
1406,53.0,51.98045
1407,52.0,51.86717
1408,48.0,51.85241
1409,52.0,52.280457
1410,51.0,52.31162
1411,53.0,52.45736
1412,52.0,52.397068
1413,57.0,52.44119
1414,48.0,51.934654
1415,52.0,52.37184
1416,53.0,52.41316
1417,52.0,52.347958
1418,52.0,52.38662
1419,52.0,52.429577
1420,52.0,52.477306
1421,52.0,52.530342
1422,52.0,52.589268
1423,57.0,52.654743
1424,51.0,52.171936
1425,51.0,52.302155
1426,52.0,52.446842
1427,52.0,52.49649
1428,57.0,52.55166
1429,53.0,52.0574
1430,52.0,51.952667
1431,52.0,51.947407
1432,52.0,51.941563
1433,52.0,51.93507
1434,52.0,51.927856
1435,52.0,51.91984
1436,52.0,51.910934
1437,52.0,51.90104
1438,52.0,51.890045
1439,52.0,51.877827
1440,57.0,51.864254
1441,48.0,51.293617
1442,52.0,51.659576
1443,56.0,51.621754
1444,50.0,51.135284
1445,51.0,51.26143
1446,51.0,51.29048
1447,48.0,51.32276
1448,48.0,51.69196
1449,52.0,52.10218
1450,52.0,52.113533
1451,57.0,52.12615
1452,47.0,51.58461
1453,52.0,52.094013
1454,52.0,52.104458
1455,57.0,52.116066
1456,48.0,51.573406
1457,52.0,51.970455
1458,56.0,51.967175
1459,48.0,51.519085
1460,52.0,51.910095
1461,52.0,51.90011
1462,51.0,51.88901
1463,52.0,51.987793
1464,52.0,51.98644
1465,53.0,51.984932
1466,52.0,51.87215
1467,52.0,51.857944
1468,52.0,51.842163
1469,52.0,51.824627
1470,53.0,51.80514
1471,51.0,51.672382
1472,52.0,51.747093
1473,55.0,51.718994
1474,48.0,51.35444
1475,51.0,51.727158
1476,52.0,51.807957
1477,53.0,51.78662
1478,55.0,51.651802
1479,51.0,51.27978
1480,48.0,51.31087
1481,52.0,51.67875
1482,52.0,51.643055
1483,52.0,51.603394
1484,47.0,51.559326
1485,50.0,52.065918
1486,53.0,52.295467
1487,52.0,52.21719
1488,55.0,52.24132
1489,49.0,51.934803
1490,52.0,52.26089
1491,52.0,52.28988
1492,52.0,52.322086
1493,52.0,52.357876
1494,52.0,52.39764
1495,53.0,52.441822
1496,53.0,52.379807
1497,51.0,52.310898
1498,52.0,52.45656
1499,52.0,52.507286
1500,52.0,52.563652
1501,55.0,52.62628
1502,48.0,52.362537
1503,55.0,52.847267
1504,56.0,52.608078
1505,51.0,52.2312
1506,53.0,52.368004
1507,52.0,52.297783
1508,52.0,52.33087
1509,52.0,52.367638
1510,53.0,52.408485
1511,52.0,52.342762
1512,53.0,52.380848
1513,52.0,52.312054
1514,53.0,52.346725
1515,57.0,52.274143
1516,51.0,51.74905
1517,55.0,51.83228
1518,52.0,51.480312
1519,51.0,51.42257
1520,51.0,51.469524
1521,48.0,51.521698
1522,52.0,51.913
1523,52.0,51.90333
1524,52.0,51.892593
1525,52.0,51.88066
1526,52.0,51.8674
1527,52.0,51.85267
1528,52.0,51.8363
1529,57.0,51.81811
1530,52.0,51.242348
1531,48.0,51.158165
1532,51.0,51.509075
1533,48.0,51.565643
1534,52.0,51.961826
1535,52.0,51.957584
1536,51.0,51.952873
1537,52.0,52.05875
1538,52.0,52.065277
1539,52.0,52.072533
1540,52.0,52.080593
1541,51.0,52.08955
1542,53.0,52.210613
1543,53.0,52.122906
1544,52.0,52.02545
1545,54.0,52.028282
1546,51.0,51.8092
1547,48.0,51.899113
1548,52.0,52.332348
1549,52.0,52.369274
1550,53.0,52.410305
1551,52.0,52.344784
1552,52.0,52.383095
1553,53.0,52.425663
1554,54.0,52.36185
1555,61.0,52.179832
1556,50.0,51.199818
1557,48.0,51.333134
1558,48.0,51.703484
1559,53.0,52.114983
1560,52.0,52.01665
1561,55.0,52.0185
1562,48.0,51.687225
1563,52.0,52.09692
1564,53.0,52.10769
1565,52.0,52.008545
1566,52.0,52.009495
1567,51.0,52.01055
1568,52.0,52.122837
1569,52.0,52.136486
1570,52.0,52.151653
1571,52.0,52.168503
1572,52.0,52.187225
1573,52.0,52.20803
1574,52.0,52.231148
1575,52.0,52.256832
1576,53.0,52.28537
1577,52.0,52.20597
1578,52.0,52.22886
1579,52.0,52.254288
1580,52.0,52.282543
1581,53.0,52.31394
1582,57.0,52.237713
1583,52.0,51.70857
1584,48.0,51.67619
1585,52.0,52.084656
1586,52.0,52.094063
1587,52.0,52.104515
1588,52.0,52.116127
1589,52.0,52.129032
1590,52.0,52.14337
1591,53.0,52.1593
1592,50.0,52.065895
1593,54.0,52.29544
1594,57.0,52.106045
1595,51.0,51.56227
1596,51.0,51.62475
1597,48.0,51.694168
1598,52.0,52.104633
1599,53.0,52.11626
1600,52.0,52.01807
1601,53.0,52.02008
1602,52.0,51.9112
1603,52.0,51.901337
1604,53.0,51.890373
1605,52.0,51.767082
1606,53.0,51.741203
1607,48.0,51.60134
1608,57.0,52.00149
1609,51.0,51.446102
1610,48.0,51.495674
1611,52.0,51.884087
1612,52.0,51.87121
1613,53.0,51.8569
1614,52.0,51.72989
1615,52.0,51.69988
1616,52.0,51.66653
1617,52.0,51.62948
1618,52.0,51.58831
1619,51.0,51.54257
1620,52.0,51.602856
1621,54.0,51.55873
1622,48.0,51.28748
1623,52.0,51.652756
1624,51.0,51.614174
1625,52.0,51.68242
1626,52.0,51.647133
1627,52.0,51.607925
1628,52.0,51.56436
1629,53.0,51.515957
1630,53.0,51.351067
1631,47.0,51.167854
1632,48.0,51.63095
1633,53.0,52.034393
1634,52.0,51.927105
1635,57.0,51.919006
1636,50.0,51.354454
1637,48.0,51.50495
1638,52.0,51.894394
1639,52.0,51.88266
1640,52.0,51.86962
1641,51.0,51.855137
1642,51.0,51.950157
1643,53.0,52.055733
1644,53.0,51.950817
1645,52.0,51.834244
1646,52.0,51.815826
1647,52.0,51.795364
1648,52.0,51.77263
1649,52.0,51.747368
1650,51.0,51.7193
1651,57.0,51.799225
1652,48.0,51.221363
1653,48.0,51.579296
1654,52.0,51.976997
1655,52.0,51.97444
1656,52.0,51.971603
1657,53.0,51.96845
1658,52.0,51.853832
1659,52.0,51.837593
1660,53.0,51.81955
1661,53.0,51.688393
1662,51.0,51.54266
1663,47.0,51.60296
1664,52.0,52.1144
1665,55.0,52.12711
1666,50.0,51.8079
1667,59.0,52.008778
1668,51.0,51.231976
1669,51.0,51.257755
1670,47.0,51.2864
1671,48.0,51.76267
1672,51.0,52.180744
1673,52.0,52.311943
1674,52.0,52.346603
1675,52.0,52.385117
1676,53.0,52.42791
1677,52.0,52.364346
1678,52.0,52.404827
1679,52.0,52.44981
1680,51.0,52.49979
1681,56.0,52.666435
1682,50.0,52.296043
1683,57.0,52.55116
1684,52.0,52.056843
1685,52.0,52.06316
1686,51.0,52.07018
1687,53.0,52.18909
1688,52.0,52.09899
1689,56.0,52.10999
1690,52.0,51.67777
1691,49.0,51.641968
1692,52.0,51.93552
1693,52.0,51.928356
1694,51.0,51.920395
1695,54.0,52.022663
1696,50.0,51.80296
1697,53.0,52.00329
1698,51.0,51.892544
1699,52.0,51.99172
1700,53.0,51.9908
1701,52.0,51.87867
1702,52.0,51.86519
1703,52.0,51.850212
1704,52.0,51.83357
1705,52.0,51.815075
1706,55.0,51.79453
1707,55.0,51.438366
1708,51.0,51.04263
1709,47.0,51.04737
1710,48.0,51.497078
1711,55.0,51.885643
1712,48.0,51.539604
1713,53.0,51.932896
1714,51.0,51.81433
1715,53.0,51.904816
1716,55.0,51.78313
1717,50.0,51.4257
1718,48.0,51.584114
1719,52.0,51.982353
1720,52.0,51.980392
1721,51.0,51.978214
1722,52.0,52.086906
1723,53.0,52.096565
1724,52.0,51.996185
1725,55.0,51.99576
1726,48.0,51.66196
1727,52.0,52.068848
1728,55.0,52.076496
1729,48.0,51.751663
1730,53.0,52.168518
1731,52.0,52.076134
1732,52.0,52.084595
1733,52.0,52.093994
1734,52.0,52.10444
1735,53.0,52.116043
1736,52.0,52.01783
1737,52.0,52.019814
1738,52.0,52.022015
1739,53.0,52.02446
1740,52.0,51.91607
1741,55.0,51.906746
1742,48.0,51.563053
1743,52.0,51.95895
1744,57.0,51.95439
1745,49.0,51.39377
1746,51.0,51.65974
1747,49.0,51.733047
1748,52.0,52.03672
1749,52.0,52.040802
1750,52.0,52.045338
1751,52.0,52.050377
1752,53.0,52.055973
1753,52.0,51.951084
1754,52.0,51.94565
1755,55.0,51.93961
1756,48.0,51.599567
1757,51.0,51.999523
1758,53.0,52.110584
1759,52.0,52.011765
1760,52.0,52.013073
1761,52.0,52.014526
1762,52.0,52.01614
1763,53.0,52.017933
1764,52.0,51.908817
1765,53.0,51.898685
1766,52.0,51.776318
1767,51.0,51.751465
1768,51.0,51.834965
1769,52.0,51.927742
1770,56.0,51.919716
1771,49.0,51.466354
1772,48.0,51.740395
1773,52.0,52.155994
1774,53.0,52.17333
1775,51.0,52.08148
1776,51.0,52.201645
1777,52.0,52.335163
1778,52.0,52.372406
1779,52.0,52.413784
1780,52.0,52.459763
1781,53.0,52.51085
1782,54.0,52.4565
1783,55.0,52.285
1784,51.0,51.983334
1785,56.0,52.092598
1786,48.0,51.658447
1787,52.0,52.064945
1788,52.0,52.072163
1789,55.0,52.08018
1790,48.0,51.755756
1791,52.0,52.173065
1792,53.0,52.192295
1793,52.0,52.10255
1794,52.0,52.113945
1795,52.0,52.126606
1796,52.0,52.140675
1797,55.0,52.156307
1798,51.0,51.840343
1799,48.0,51.93372
1800,55.0,52.370804
1801,52.0,52.07867
1802,52.0,52.087414
1803,52.0,52.097126
1804,57.0,52.107918
1805,47.0,51.564354
1806,52.0,52.071507
1807,52.0,52.079453
1808,52.0,52.08828
1809,52.0,52.09809
1810,53.0,52.10899
1811,52.0,52.00999
1812,53.0,52.0111
1813,51.0,51.901226
1814,52.0,52.001366
1815,51.0,52.00152
1816,52.0,52.1128
1817,52.0,52.125336
1818,52.0,52.139263
1819,57.0,52.154736
1820,53.0,51.616375
1821,52.0,51.462643
1822,50.0,51.40294
1823,52.0,51.558823
1824,52.0,51.509804
1825,48.0,51.455338
1826,52.0,51.839268
1827,52.0,51.82141
1828,52.0,51.801567
1829,52.0,51.77952
1830,53.0,51.75502
1831,48.0,51.61669
1832,52.0,52.018547
1833,53.0,52.020607
1834,51.0,51.91179
1835,52.0,52.013103
1836,52.0,52.01456
1837,52.0,52.01618
1838,52.0,52.017975
1839,53.0,52.019974
1840,52.0,51.911083
1841,52.0,51.901203
1842,52.0,51.890224
1843,52.0,51.87803
1844,52.0,51.86448
1845,51.0,51.849422
1846,52.0,51.943806
1847,52.0,51.93756
1848,52.0,51.930626
1849,54.0,51.92292
1850,55.0,51.692135
1851,48.0,51.324596
1852,49.0,51.694
1853,51.0,51.993332
1854,52.0,52.103706
1855,52.0,52.11523
1856,52.0,52.128033
1857,52.0,52.142258
1858,53.0,52.158066
1859,55.0,52.06452
1860,56.0,51.738358
1861,42.0,51.264847
1862,52.0,52.294273
1863,52.0,52.32697
1864,53.0,52.3633
1865,57.0,52.292557
1866,46.0,51.76951
1867,52.0,52.41057
1868,53.0,52.45619
1869,52.0,52.395767
1870,53.0,52.439743
1871,52.0,52.377495
1872,52.0,52.419437
1873,53.0,52.46604
1874,55.0,52.406715
1875,52.0,52.118576
1876,55.0,52.131752
1877,52.0,51.81306
1878,48.0,51.79229
1879,53.0,52.213657
1880,54.0,52.12629
1881,51.0,51.9181
1882,52.0,52.02011
1883,52.0,52.022346
1884,51.0,52.02483
1885,52.0,52.138702
1886,52.0,52.154114
1887,53.0,52.171238
1888,53.0,52.079155
1889,55.0,51.97684
1890,51.0,51.640938
1891,53.0,51.71216
1892,52.0,51.56907
1893,53.0,51.521187
1894,53.0,51.356876
1895,49.0,51.17431
1896,48.0,51.415897
1897,52.0,51.795444
1898,52.0,51.772717
1899,52.0,51.747463
1900,52.0,51.719402
1901,53.0,51.688225
1902,51.0,51.542473
1903,49.0,51.60275
1904,51.0,51.89194
1905,52.0,51.991047
1906,53.0,51.99005
1907,52.0,51.87784
1908,51.0,51.864265
1909,52.0,51.960297
1910,55.0,51.955887
1911,48.0,51.617653
1912,52.0,52.019615
1913,52.0,52.021797
1914,53.0,52.02422
1915,52.0,51.915802
1916,51.0,51.90645
1917,52.0,52.007168
1918,54.0,52.007965
1919,50.0,51.78663
1920,52.0,51.985146
1921,51.0,51.983494
1922,52.0,52.092773
1923,52.0,52.10308
1924,52.0,52.114536
1925,50.0,52.127262
1926,52.0,52.363625
1927,57.0,52.404026
1928,53.0,51.893364
1929,49.0,51.77041
1930,56.0,52.07823
1931,53.0,51.642483
1932,51.0,51.49165
1933,51.0,51.54628
1934,48.0,51.60698
1935,51.0,52.00776
1936,52.0,52.119736
1937,53.0,52.13304
1938,52.0,52.036716
1939,52.0,52.0408
1940,53.0,52.045334
1941,52.0,51.939262
1942,52.0,51.932514
1943,52.0,51.92502
1944,51.0,51.916687
1945,52.0,52.018543
1946,52.0,52.020603
1947,52.0,52.022892
1948,57.0,52.025436
1949,47.0,51.47271
1950,52.0,51.969677
1951,52.0,51.96631
1952,52.0,51.962566
1953,51.0,51.95841
1954,52.0,52.0649
1955,59.0,52.072113
1956,44.0,51.30235
1957,52.0,52.11372
1958,52.0,52.126354
1959,52.0,52.140392
1960,52.0,52.15599
1961,53.0,52.173325
1962,52.0,52.081474
1963,56.0,52.090527
1964,48.0,51.656143
1965,53.0,52.062386
1966,52.0,51.95821
1967,52.0,51.953568
1968,53.0,51.94841
1969,56.0,51.83157
1970,55.0,51.368412
1971,53.0,50.964905
1972,43.0,50.738785
1973,48.0,51.59865
1974,52.0,51.998505
1975,53.0,51.99834
1976,53.0,51.887047
1977,52.0,51.76339
1978,53.0,51.7371
1979,47.0,51.59678
1980,52.0,52.107533
1981,52.0,52.11948
1982,55.0,52.132755
1983,52.0,51.814175
1984,48.0,51.79353
1985,53.0,52.215034
1986,53.0,52.12782
1987,52.0,52.03091
1988,52.0,52.034344
1989,52.0,52.038162
1990,52.0,52.042404
1991,53.0,52.047115
1992,52.0,51.941242
1993,57.0,51.934715
1994,48.0,51.371906
1995,52.0,51.746567
1996,53.0,51.718407
1997,52.0,51.576008
1998,52.0,51.5289
1999,52.0,51.476555
2000,52.0,51.418396
2001,52.0,51.353775
2002,51.0,51.28197
2003,51.0,51.313305
2004,52.0,51.348118
2005,52.0,51.27569
2006,51.0,51.19521
2007,51.0,51.216904
2008,54.0,51.24101
2009,47.0,50.934452
2010,48.0,51.371613
2011,52.0,51.74624
2012,52.0,51.718044
2013,51.0,51.686718
2014,52.0,51.763023
2015,52.0,51.736694
2016,51.0,51.70744
2017,51.0,51.786045
2018,52.0,51.873386
2019,51.0,51.859318
2020,51.0,51.9548
2021,52.0,52.06089
2022,52.0,52.067657
2023,55.0,52.075176
2024,48.0,51.7502
2025,52.0,52.16689
2026,52.0,52.185432
2027,52.0,52.206036
2028,53.0,52.228928
2029,52.0,52.143253
2030,52.0,52.159172
2031,53.0,52.176857
2032,57.0,52.0854
2033,47.0,51.539333
2034,51.0,52.043705
2035,52.0,52.159676
2036,54.0,52.177418
2037,51.0,51.974907
2038,50.0,52.083233
2039,52.0,52.314705
2040,53.0,52.349674
2041,52.0,52.27742
2042,52.0,52.308247
2043,52.0,52.342495
2044,52.0,52.38055
2045,57.0,52.422832
2046,55.0,51.914257
2047,55.0,51.5714
2048,49.0,51.190445
2049,48.0,51.433826
2050,52.0,51.815365
2051,52.0,51.79485
2052,53.0,51.772057
2053,53.0,51.63562
2054,51.0,51.484024
2055,48.0,51.537807
2056,52.0,51.9309
2057,52.0,51.923225
2058,52.0,51.914696
2059,52.0,51.905216
2060,52.0,51.894684
2061,51.0,51.882984
2062,51.0,51.9811
2063,54.0,52.09011
2064,54.0,51.8779
2065,51.0,51.64211
2066,50.0,51.71346
2067,52.0,51.903847
2068,51.0,51.89316
2069,53.0,51.992405
2070,51.0,51.88045
2071,52.0,51.978283
2072,52.0,51.975872
2073,52.0,51.97319
2074,52.0,51.97021
2075,52.0,51.9669
2076,53.0,51.963223
2077,53.0,51.848026
2078,52.0,51.72003
2079,48.0,51.688927
2080,53.0,52.09881
2081,52.0,51.99868
2082,52.0,51.998535
2083,52.0,51.998375
2084,53.0,51.998196
2085,55.0,51.886887
2086,52.0,51.540985
2087,49.0,51.489983
2088,48.0,51.766647
2089,52.0,52.185165
2090,51.0,52.20574
2091,57.0,52.339718
2092,52.0,51.82191
2093,48.0,51.802124
2094,56.0,52.224586
2095,48.0,51.8051
2096,52.0,52.22789
2097,52.0,52.253212
2098,53.0,52.28135
2099,54.0,52.2015
2100,51.0,52.001667
2101,51.0,52.112965
2102,52.0,52.23663
2103,52.0,52.262924
2104,53.0,52.292137
2105,52.0,52.21349
2106,52.0,52.237213
2107,52.0,52.263573
2108,51.0,52.29286
2109,57.0,52.436512
2110,52.0,51.92946
2111,52.0,51.92162
2112,52.0,51.91291
2113,53.0,51.903233
2114,51.0,51.781372
2115,52.0,51.868195
2116,53.0,51.85355
2117,55.0,51.72617
2118,51.0,51.36241
2119,46.0,51.402683
2120,52.0,52.002983
2121,51.0,52.003315
2122,53.0,52.1148
2123,53.0,52.016445
2124,57.0,51.907166
2125,45.0,51.341297
2126,51.0,52.045887
2127,52.0,52.162098
2128,53.0,52.18011
2129,52.0,52.089016
2130,53.0,52.098907
2131,51.0,51.998787
2132,53.0,52.109768
2133,52.0,52.010857
2134,52.0,52.012062
2135,52.0,52.013405
2136,52.0,52.014896
2137,52.0,52.016552
2138,51.0,52.01839
2139,55.0,52.13155
2140,48.0,51.812836
2141,52.0,52.23649
2142,52.0,52.262764
2143,55.0,52.29196
2144,53.0,51.99107
2145,51.0,51.878967
2146,48.0,51.976635
2147,53.0,52.418484
2148,52.0,52.353874
2149,52.0,52.393192
2150,52.0,52.436882
2151,52.0,52.485424
2152,53.0,52.53936
2153,52.0,52.488182
2154,52.0,52.542427
2155,56.0,52.6027
2156,52.0,52.225224
2157,53.0,52.250248
2158,54.0,52.166946
2159,50.0,51.963272
2160,53.0,52.181416
2161,55.0,52.090466
2162,51.0,51.767185
2163,51.0,51.852432
2164,52.0,51.94715
2165,52.0,51.94128
2166,52.0,51.934757
2167,51.0,51.92751
2168,53.0,52.03057
2169,54.0,51.92286
2170,53.0,51.692066
2171,51.0,51.54674
2172,48.0,51.607494
2173,57.0,52.00833
2174,48.0,51.4537
2175,52.0,51.83745
2176,52.0,51.81939
2177,52.0,51.799324
2178,52.0,51.777027
2179,52.0,51.752254
2180,52.0,51.724728
2181,53.0,51.69414
2182,52.0,51.54905
2183,52.0,51.498943
2184,52.0,51.44327
2185,52.0,51.381413
2186,52.0,51.31268
2187,51.0,51.23631
2188,51.0,51.26257
2189,52.0,51.291748
2190,51.0,51.213055
2191,51.0,51.23673
2192,52.0,51.263035
2193,52.0,51.181152
2194,51.0,51.090168
2195,53.0,51.10019
2196,51.0,50.889103
2197,47.0,50.876785
2198,48.0,51.30754
2199,52.0,51.67505
2200,47.0,51.638943
2201,53.0,52.15438
2202,54.0,52.060425
2203,50.0,51.844917
2204,52.0,52.04991
2205,51.0,52.055458
2206,52.0,52.172733
2207,52.0,52.191925
2208,52.0,52.21325
2209,52.0,52.236946
2210,52.0,52.263275
2211,52.0,52.29253
2212,52.0,52.325035
2213,52.0,52.361153
2214,57.0,52.401283
2215,50.0,51.890316
2216,52.0,52.100353
2217,54.0,52.111504
2218,52.0,51.901672
2219,52.0,51.890747
2220,52.0,51.87861
2221,52.0,51.86512
2222,55.0,51.850136
2223,51.0,51.500153
2224,48.0,51.55573
2225,52.0,51.950813
2226,52.0,51.94535
2227,51.0,51.939278
2228,51.0,52.043644
2229,53.0,52.159607
2230,52.0,52.06623
2231,53.0,52.07359
2232,57.0,51.970657
2233,48.0,51.411842
2234,57.0,51.79094
2235,51.0,51.212154
2236,52.0,51.23573
2237,46.0,51.15081
2238,48.0,51.723125
2239,52.0,52.136806
2240,52.0,52.152008
2241,52.0,52.1689
2242,52.0,52.187668
2243,52.0,52.20852
2244,53.0,52.23169
2245,52.0,52.146324
2246,51.0,52.162582
2247,52.0,52.29176
2248,55.0,52.324177
2249,53.0,52.026863
2250,55.0,51.91874
2251,52.0,51.576378
2252,49.0,51.52931
2253,51.0,51.81034
2254,52.0,51.900383
2255,52.0,51.889317
2256,52.0,51.877018
2257,52.0,51.863354
2258,52.0,51.84817
2259,52.0,51.831303
2260,55.0,51.812557
2261,48.0,51.458397
2262,55.0,51.842667
2263,48.0,51.49185
2264,53.0,51.879837
2265,52.0,51.755375
2266,51.0,51.728195
2267,51.0,51.80911
2268,52.0,51.899014
2269,52.0,51.887794
2270,52.0,51.875328
2271,52.0,51.861477
2272,57.0,51.846085
2273,51.0,51.27343
2274,48.0,51.303814
2275,56.0,51.670906
2276,51.0,51.1899
2277,51.0,51.211002
2278,44.0,51.23445
2279,51.0,52.03828
2280,52.0,52.15365
2281,52.0,52.17072
2282,53.0,52.18969
2283,52.0,52.09966
2284,52.0,52.110733
2285,52.0,52.12304
2286,53.0,52.13671
2287,52.0,52.040794
2288,52.0,52.045326
2289,52.0,52.05036
2290,55.0,52.055958
2291,51.0,51.728844
2292,55.0,51.80983
2293,48.0,51.455368
2294,53.0,51.839302
2295,52.0,51.71034
2296,52.0,51.678154
2297,51.0,51.642395
2298,52.0,51.713776
2299,52.0,51.681973
2300,51.0,51.646637
2301,53.0,51.718487
2302,51.0,51.5761
2303,57.0,51.640114
2304,51.0,51.04457
2305,48.0,51.049526
2306,51.0,51.388367
2307,49.0,51.431522
2308,49.0,51.70169
2309,52.0,52.001877
2310,55.0,52.002087
2311,52.0,51.668987
2312,48.0,51.63221
2313,52.0,52.03579
2314,52.0,52.03977
2315,52.0,52.044186
2316,52.0,52.049095
2317,53.0,52.05455
2318,51.0,51.9495
2319,52.0,52.055004
2320,52.0,52.061115
2321,57.0,52.067905
2322,48.0,51.519894
2323,52.0,51.910995
2324,52.0,51.901108
2325,51.0,51.89012
2326,52.0,51.989025
2327,52.0,51.98781
2328,52.0,51.986454
2329,56.0,51.98495
2330,52.0,51.538837
2331,48.0,51.4876
2332,52.0,51.87511
2333,52.0,51.861233
2334,52.0,51.845814
2335,55.0,51.828682
2336,51.0,51.476315
2337,48.0,51.529243
2338,52.0,51.921383
2339,51.0,51.912647
2340,52.0,52.014057
2341,53.0,52.01562
2342,52.0,51.906246
2343,51.0,51.89583
2344,52.0,51.99537
2345,56.0,51.994854
2346,55.0,51.549843
2347,51.0,51.166492
2348,47.0,51.184994
2349,52.0,51.649994
2350,53.0,51.611103
2351,50.0,51.456783
2352,52.0,51.61865
2353,51.0,51.576275
2354,51.0,51.64031
2355,54.0,51.711456
2356,51.0,51.457172
2357,48.0,51.507973
2358,51.0,51.89775
2359,52.0,51.997505
2360,52.0,51.99723
2361,52.0,51.99692
2362,52.0,51.99658
2363,51.0,51.996197
2364,52.0,52.106888
2365,57.0,52.118763
2366,48.0,51.576405
2367,53.0,51.973785
2368,52.0,51.859764
2369,52.0,51.84418
2370,52.0,51.82687
2371,52.0,51.807632
2372,51.0,51.78626
2373,52.0,51.873623
2374,52.0,51.85958
2375,52.0,51.84398
2376,51.0,51.826645
2377,52.0,51.9185
2378,52.0,51.909443
2379,52.0,51.89938
2380,53.0,51.8882
2381,53.0,51.764668
2382,52.0,51.62741
2383,51.0,51.586014
2384,52.0,51.65113
2385,51.0,51.61237
2386,52.0,51.680412
2387,48.0,51.644905
2388,52.0,52.049896
2389,52.0,52.05544
2390,52.0,52.0616
2391,52.0,52.068443
2392,51.0,52.07605
2393,53.0,52.195614
2394,53.0,52.10624
2395,53.0,52.006935
2396,50.0,51.8966
2397,52.0,52.107334
2398,52.0,52.119263
2399,53.0,52.132515
2400,52.0,52.03613
2401,52.0,52.040146
2402,52.0,52.04461
2403,52.0,52.049564
2404,52.0,52.055073
2405,53.0,52.06119
2406,52.0,51.956882
2407,52.0,51.95209
2408,54.0,51.94677
2409,53.0,51.71863
2410,51.0,51.57626
2411,50.0,51.640293
2412,52.0,51.822548
2413,52.0,51.80283
2414,51.0,51.780922
2415,51.0,51.867695
2416,52.0,51.964108
2417,52.0,51.96012
2418,52.0,51.955692
2419,52.0,51.95077
2420,53.0,51.9453
2421,55.0,51.828114
2422,53.0,51.47568
2423,51.0,51.306316
2424,47.0,51.340355
2425,52.0,51.822617
2426,52.0,51.80291
2427,51.0,51.781013
2428,52.0,51.867798
2429,52.0,51.85311
2430,52.0,51.836792
2431,51.0,51.818657
2432,53.0,51.909622
2433,52.0,51.78847
2434,52.0,51.76497
2435,55.0,51.738853
2436,51.0,51.376507
2437,48.0,51.418343
2438,51.0,51.79816
2439,52.0,51.88685
2440,54.0,51.874275
2441,51.0,51.638084
2442,55.0,51.708984
2443,47.0,51.34332
2444,52.0,51.82591
2445,52.0,51.806564
2446,52.0,51.785072
2447,51.0,51.761192
2448,53.0,51.84577
2449,52.0,51.717525
2450,52.0,51.686142
2451,52.0,51.651268
2452,52.0,51.612522
2453,52.0,51.56947
2454,51.0,51.521633
2455,54.0,51.579594
2456,51.0,51.31066
2457,53.0,51.34518
2458,48.0,51.161312
2459,51.0,51.51257
2460,51.0,51.569523
2461,49.0,51.632805
2462,52.0,51.92534
2463,50.0,51.91704
2464,49.0,52.130047
2465,53.0,52.47783
2466,52.0,52.41981
2467,53.0,52.466457
2468,53.0,52.407177
2469,52.0,52.34131
2470,57.0,52.37923
2471,50.0,51.86581
2472,52.0,52.073124
2473,51.0,52.08125
2474,53.0,52.20139
2475,53.0,52.112656
2476,52.0,52.014065
2477,51.0,52.01563
2478,52.0,52.12848
2479,52.0,52.142754
2480,52.0,52.158615
2481,52.0,52.17624
2482,53.0,52.195824
2483,53.0,52.106472
2484,52.0,52.007195
2485,56.0,52.007996
2486,47.0,51.56444
2487,51.0,52.0716
2488,55.0,52.19067
2489,52.0,51.878525
2490,48.0,51.86503
2491,52.0,52.29448
2492,53.0,52.3272
2493,52.0,52.25245
2494,52.0,52.2805
2495,52.0,52.311665
2496,52.0,52.346294
2497,56.0,52.384773
2498,55.0,51.983086
2499,51.0,51.647873
2500,52.0,51.719864
2501,44.0,51.68874
2502,53.0,52.543045
2503,56.0,52.492275
2504,52.0,52.10253
2505,52.0,52.113926
2506,52.0,52.126583
2507,52.0,52.140648
2508,52.0,52.156277
2509,52.0,52.17364
2510,52.0,52.192936
2511,52.0,52.214375
2512,53.0,52.238194
2513,53.0,52.15355
2514,59.0,52.0595
2515,51.0,51.288334
2516,49.0,51.320374
2517,48.0,51.578194
2518,51.0,51.975773
2519,52.0,52.084194
2520,52.0,52.09355
2521,52.0,52.103947
2522,52.0,52.115498
2523,51.0,52.12833
2524,53.0,52.253704
2525,53.0,52.170784
2526,52.0,52.07865
2527,52.0,52.08739
2528,51.0,52.097103
2529,53.0,52.219006
2530,55.0,52.132233
2531,48.0,51.813595
2532,52.0,52.23733
2533,52.0,52.263702
2534,52.0,52.293003
2535,53.0,52.32556
2536,57.0,52.250626
2537,55.0,51.72292
2538,51.0,51.358803
2539,50.0,51.398674
2540,48.0,51.554085
2541,51.0,51.948986
2542,53.0,52.054432
2543,57.0,51.94937
2544,47.0,51.38819
2545,54.0,51.875767
2546,48.0,51.63974
2547,52.0,52.04416
2548,52.0,52.049065
2549,55.0,52.054516
2550,48.0,51.72724
2551,53.0,52.14138
2552,52.0,52.045982
2553,52.0,52.05109
2554,52.0,52.056767
2555,52.0,52.063076
2556,53.0,52.070084
2557,52.0,51.966763
2558,52.0,51.96307
2559,52.0,51.95897
2560,52.0,51.95441
2561,53.0,51.949345
2562,48.0,51.832607
2563,52.0,52.258453
2564,52.0,52.28717
2565,57.0,52.31908
2566,47.0,51.79898
2567,53.0,52.332203
2568,51.0,52.258007
2569,52.0,52.39779
2570,52.0,52.44199
2571,52.0,52.4911
2572,57.0,52.545666
2573,52.0,52.05074
2574,52.0,52.056377
2575,56.0,52.06264
2576,54.0,51.62516
2577,50.0,51.36129
2578,50.0,51.512547
2579,48.0,51.680607
2580,55.0,52.089565
2581,51.0,51.766186
2582,52.0,51.851322
2583,52.0,51.834805
2584,52.0,51.81645
2585,51.0,51.796055
2586,52.0,51.88451
2587,52.0,51.871677
2588,51.0,51.85742
2589,52.0,51.952694
2590,54.0,51.947437
2591,51.0,51.719376
2592,52.0,51.79931
2593,52.0,51.77701
2594,52.0,51.752235
2595,52.0,51.72471
2596,52.0,51.694122
2597,52.0,51.660137
2598,52.0,51.622375
2599,48.0,51.580418
2600,52.0,51.978245
2601,51.0,51.97583
2602,51.0,52.08426
2603,52.0,52.204735
2604,52.0,52.227486
2605,55.0,52.25276
2606,51.0,51.947514
2607,53.0,52.052795
2608,51.0,51.94755
2609,53.0,52.052837
2610,55.0,51.947598
2611,48.0,51.608444
2612,55.0,52.009384
2613,55.0,51.677094
2614,51.0,51.307884
2615,48.0,51.3421
2616,48.0,51.713444
2617,52.0,52.12605
2618,52.0,52.140057
2619,52.0,52.15562
2620,54.0,52.172913
2621,52.0,51.969902
2622,53.0,51.96656
2623,52.0,51.851734
2624,53.0,51.835262
2625,56.0,51.70585
2626,53.0,51.228725
2627,43.0,51.031918
2628,53.0,51.924355
2629,52.0,51.80484
2630,52.0,51.783157
2631,52.0,51.759064
2632,51.0,51.732292
2633,52.0,51.81366
2634,52.0,51.792957
2635,53.0,51.769955
2636,48.0,51.633286
2637,52.0,52.036987
2638,52.0,52.041096
2639,52.0,52.045662
2640,54.0,52.050735
2641,52.0,51.834152
2642,52.0,51.815727
2643,52.0,51.795254
2644,52.0,51.772507
2645,52.0,51.74723
2646,51.0,51.719147
2647,52.0,51.799057
2648,52.0,51.77673
2649,52.0,51.751923
2650,57.0,51.724358
2651,52.0,51.138176
2652,51.0,51.04242
2653,48.0,51.047134
2654,49.0,51.385708
2655,48.0,51.650787
2656,53.0,52.05643
2657,51.0,51.95159
2658,52.0,52.057327
2659,52.0,52.063698
2660,52.0,52.070774
2661,51.0,52.07864
2662,53.0,52.198494
2663,52.0,52.10944
2664,52.0,52.1216
2665,55.0,52.135113
2666,47.0,51.816795
2667,53.0,52.351997
2668,53.0,52.28
2669,54.0,52.2
2670,52.0,52.0
2671,52.0,52.0
