no,raw,smooth
0,50.0,52.855316
1,52.0,53.172577
2,54.0,53.302864
3,53.0,53.225403
4,53.0,53.25045
5,54.0,53.278282
6,53.0,53.19809
7,53.0,53.2201
8,54.0,53.244556
9,53.0,53.160618
10,54.0,53.178467
11,53.0,53.087185
12,54.0,53.096874
13,55.0,52.996525
14,48.0,52.77392
15,53.0,53.304356
16,54.0,53.338177
17,53.0,53.26464
18,54.0,53.29405
19,54.0,53.21561
20,54.0,53.128456
21,53.0,53.031616
22,54.0,53.03513
23,54.0,52.92792
24,54.0,52.8088
25,53.0,52.676445
26,53.0,52.640495
27,53.0,52.60055
28,55.0,52.55617
29,51.0,52.284637
30,48.0,52.42738
31,52.0,52.91931
32,53.0,53.021458
33,53.0,53.023846
34,53.0,53.026497
35,53.0,53.02944
36,57.0,53.032715
37,53.0,52.591908
38,53.0,52.546566
39,49.0,52.496185
40,52.0,52.88465
41,53.0,52.982944
42,53.0,52.981052
43,53.0,52.97895
44,53.0,52.976612
45,55.0,52.974014
46,48.0,52.748905
47,54.0,53.27656
48,53.0,53.19618
49,53.0,53.21798
50,54.0,53.242203
51,53.0,53.158005
52,53.0,53.175564
53,53.0,53.195072
54,53.0,53.21675
55,53.0,53.240837
56,53.0,53.267597
57,54.0,53.297333
58,55.0,53.219257
59,55.0,53.021397
60,52.0,52.80155
61,53.0,52.890614
62,49.0,52.878464
63,53.0,53.309402
64,53.0,53.343784
65,54.0,53.381985
66,54.0,53.313316
67,53.0,53.23702
68,53.0,53.263355
69,54.0,53.292618
70,54.0,53.21402
71,53.0,53.12669
72,53.0,53.14077
73,54.0,53.156414
74,53.0,53.062683
75,54.0,53.06965
76,53.0,52.966278
77,55.0,52.962532
78,50.0,52.73615
79,50.0,53.040165
80,54.0,53.377964
81,57.0,53.30885
82,55.0,52.898724
83,53.0,52.66525
84,49.0,52.628056
85,52.0,53.031174
86,53.0,53.14575
87,53.0,53.161945
88,54.0,53.179943
89,55.0,53.088825
90,53.0,52.876472
91,50.0,52.86275
92,53.0,53.180836
93,53.0,53.20093
94,56.0,53.22326
95,49.0,52.914734
96,53.0,53.349705
97,54.0,53.38856
98,53.0,53.320625
99,53.0,53.35625
100,53.0,53.395836
101,53.0,53.43982
102,54.0,53.48869
103,54.0,53.431877
104,54.0,53.36875
105,53.0,53.298615
106,54.0,53.331795
107,53.0,53.25755
108,53.0,53.286167
109,53.0,53.317966
110,56.0,53.3533
111,52.0,53.059223
112,53.0,53.176914
113,53.0,53.196575
114,53.0,53.21842
115,53.0,53.24269
116,53.0,53.269657
117,53.0,53.29962
118,54.0,53.332916
119,55.0,53.258797
120,53.0,53.06533
121,49.0,53.07259
122,54.0,53.5251
123,54.0,53.472332
124,54.0,53.413704
125,54.0,53.34856
126,59.0,53.276176
127,52.0,52.640198
128,52.0,52.71133
129,49.0,52.790367
130,53.0,53.211517
131,54.0,53.235023
132,53.0,53.150024
133,53.0,53.166695
134,54.0,53.18522
135,53.0,53.09469
136,54.0,53.105213
137,53.0,53.00579
138,54.0,53.006435
139,53.0,52.896038
140,53.0,52.884487
141,52.0,52.871655
142,52.0,52.968506
143,55.0,53.07612
144,49.0,52.862354
145,54.0,53.291504
146,53.0,53.21278
147,53.0,53.236423
148,54.0,53.262695
149,55.0,53.18077
150,53.0,52.978638
151,49.0,52.976265
152,54.0,53.41807
153,54.0,53.353413
154,53.0,53.28157
155,53.0,53.31286
156,54.0,53.347622
157,53.0,53.275135
158,53.0,53.305706
159,58.0,53.339676
160,48.0,52.821865
161,54.0,53.35763
162,53.0,53.28626
163,53.0,53.31807
164,53.0,53.353413
165,53.0,53.392685
166,54.0,53.436317
167,53.0,53.373688
168,54.0,53.41521
169,53.0,53.350235
170,55.0,53.389153
171,57.0,53.21017
172,53.0,52.789078
173,51.0,52.765644
174,48.0,52.96183
175,55.0,53.513145
176,53.0,53.347942
177,53.0,53.386604
178,54.0,53.42956
179,57.0,53.36618
180,53.0,52.96242
181,48.0,52.95825
182,55.0,53.509167
183,53.0,53.34352
184,53.0,53.38169
185,54.0,53.424103
186,53.0,53.360115
187,54.0,53.40013
188,54.0,53.333477
189,53.0,53.25942
190,54.0,53.288246
191,53.0,53.209164
192,53.0,53.232407
193,52.0,53.258232
194,53.0,53.398037
195,54.0,53.442265
196,53.0,53.380295
197,53.0,53.42255
198,54.0,53.4695
199,53.0,53.410557
200,53.0,53.456177
201,54.0,53.506866
202,54.0,53.452072
203,53.0,53.39119
204,55.0,53.434658
205,53.0,53.26073
206,53.0,53.289703
207,54.0,53.321896
208,55.0,53.24655
209,53.0,53.051727
210,53.0,53.057476
211,49.0,53.063866
212,54.0,53.515408
213,53.0,53.461563
214,53.0,53.51285
215,57.0,53.56984
216,55.0,53.18871
217,53.0,52.987457
218,51.0,52.986065
219,48.0,53.20674
220,55.0,53.78527
221,53.0,53.650303
222,54.0,53.72256
223,53.0,53.691734
224,58.0,53.768597
225,52.0,53.298443
226,53.0,53.442715
227,54.0,53.49191
228,53.0,53.435455
229,53.0,53.48384
230,53.0,53.5376
231,54.0,53.597336
232,53.0,53.552593
233,53.0,53.613995
234,54.0,53.68222
235,53.0,53.64691
236,57.0,53.718792
237,52.0,53.354214
238,53.0,53.50468
239,58.0,53.560757
240,53.0,53.06751
241,49.0,53.075012
242,54.0,53.52779
243,53.0,53.475323
244,55.0,53.528137
245,53.0,53.364597
246,54.0,53.40511
247,53.0,53.33901
248,53.0,53.37668
249,54.0,53.418533
250,53.0,53.353924
251,53.0,53.39325
252,56.0,53.436947
253,51.0,53.15217
254,53.0,53.3913
255,53.0,53.43478
256,53.0,53.483093
257,55.0,53.536774
258,52.0,53.374195
259,53.0,53.526882
260,57.0,53.585426
261,55.0,53.20603
262,53.0,53.006702
263,50.0,53.00745
264,52.0,53.341614
265,54.0,53.49068
266,53.0,53.43409
267,53.0,53.482323
268,57.0,53.535915
269,54.0,53.151016
270,53.0,53.056683
271,50.0,53.062984
272,53.0,53.403316
273,58.0,53.44813
274,48.0,52.94237
275,53.0,53.491528
276,54.0,53.546143
277,53.0,53.495712
278,54.0,53.550793
279,54.0,53.50088
280,53.0,53.445423
281,54.0,53.494915
282,53.0,53.438793
283,53.0,53.48755
284,58.0,53.54172
285,48.0,53.04636
286,54.0,53.607067
287,53.0,53.563408
288,53.0,53.62601
289,57.0,53.695568
290,52.0,53.32841
291,53.0,53.476013
292,53.0,53.528908
293,54.0,53.587677
294,53.0,53.541862
295,54.0,53.60207
296,54.0,53.557854
297,54.0,53.508724
298,54.0,53.454136
299,57.0,53.393486
300,55.0,52.992764
301,49.0,52.769737
302,52.0,53.1886
303,54.0,53.320667
304,54.0,53.245186
305,57.0,53.161316
306,53.0,52.734795
307,52.0,52.70533
308,49.0,52.7837
309,52.0,53.20411
310,53.0,53.3379
311,54.0,53.375446
312,53.0,53.30605
313,53.0,53.340057
314,54.0,53.377846
315,54.0,53.308716
316,57.0,53.231907
317,49.0,52.813232
318,53.0,53.236923
319,53.0,53.26325
320,54.0,53.2925
321,53.0,53.213886
322,55.0,53.23765
323,48.0,53.041836
324,53.0,53.602043
325,54.0,53.668938
326,53.0,53.632153
327,54.0,53.702393
328,53.0,53.669327
329,57.0,53.7437
330,55.0,53.38189
331,52.0,53.2021
332,56.0,53.335667
333,49.0,53.039635
334,54.0,53.488483
335,54.0,53.43165
336,53.0,53.368496
337,53.0,53.409443
338,57.0,53.45494
339,49.0,53.061047
340,54.0,53.51227
341,54.0,53.45808
342,54.0,53.397865
343,53.0,53.33096
344,53.0,53.367733
345,53.0,53.408596
346,54.0,53.454
347,53.0,53.393333
348,57.0,53.43704
349,50.0,53.041153
350,58.0,53.37906
351,53.0,52.865623
352,52.0,52.850697
353,49.0,52.94522
354,55.0,53.38358
355,53.0,53.20398
356,54.0,53.226646
357,54.0,53.140717
358,53.0,53.045242
359,55.0,53.05027
360,55.0,52.833633
361,51.0,52.592926
362,50.0,52.76992
363,53.0,53.07769
364,57.0,53.086327
365,48.0,52.651474
366,53.0,53.16831
367,54.0,53.18701
368,54.0,53.09668
369,54.0,52.99631
370,53.0,52.88479
371,53.0,52.87199
372,52.0,52.85777
373,52.0,52.953075
374,54.0,53.058975
375,53.0,52.95442
376,53.0,52.949356
377,53.0,52.943733
378,53.0,52.937485
379,53.0,52.930542
380,55.0,52.92283
381,48.0,52.69203
382,53.0,53.21337
383,53.0,53.23708
384,54.0,53.263424
385,53.0,53.181583
386,54.0,53.201763
387,57.0,53.11307
388,48.0,52.68119
389,54.0,53.201324
390,55.0,53.112583
391,52.0,52.90287
392,52.0,53.00319
393,53.0,53.114655
394,55.0,53.127396
395,57.0,52.91933
396,51.0,52.465923
397,49.0,52.628807
398,48.0,53.03201
399,53.0,53.59112
400,54.0,53.656803
401,53.0,53.61867
402,54.0,53.687416
403,58.0,53.652683
404,51.0,53.16965
405,54.0,53.410725
406,53.0,53.34525
407,53.0,53.383614
408,54.0,53.42624
409,54.0,53.362488
410,54.0,53.291653
411,54.0,53.212948
412,55.0,53.125496
413,50.0,52.917217
414,53.0,53.241352
415,54.0,53.268173
416,53.0,53.18686
417,53.0,53.207623
418,54.0,53.230694
419,54.0,53.145214
420,55.0,53.05024
421,52.0,52.8336
422,49.0,52.92622
423,55.0,53.362465
424,53.0,53.18052
425,54.0,53.20058
426,53.0,53.111755
427,54.0,53.124176
428,53.0,53.026863
429,52.0,53.02985
430,53.0,53.14428
431,53.0,53.160313
432,54.0,53.178127
433,53.0,53.086807
434,53.0,53.096455
435,54.0,53.107174
436,55.0,53.007973
437,48.0,52.786636
438,53.0,53.318485
439,55.0,53.353874
440,58.0,53.17097
441,53.0,52.634415
442,52.0,52.593796
443,49.0,52.659775
444,53.0,53.066418
445,52.0,53.0738
446,53.0,53.19311
447,53.0,53.21457
448,53.0,53.23841
449,53.0,53.264904
450,58.0,53.294342
451,52.0,52.771492
452,53.0,52.857212
453,49.0,52.84135
454,53.0,53.268166
455,53.0,53.297966
456,54.0,53.331074
457,53.0,53.25675
458,53.0,53.28528
459,53.0,53.31698
460,53.0,53.3522
461,53.0,53.391335
462,54.0,53.43482
463,53.0,53.37202
464,53.0,53.413357
465,54.0,53.459286
466,53.0,53.399208
467,53.0,53.443565
468,55.0,53.49285
469,53.0,53.325394
470,53.0,53.36155
471,54.0,53.401726
472,53.0,53.33525
473,53.0,53.3725
474,54.0,53.413895
475,53.0,53.34877
476,53.0,53.387524
477,54.0,53.430584
478,53.0,53.367317
479,54.0,53.40813
480,58.0,53.342365
481,53.0,52.824852
482,49.0,52.805393
483,54.0,53.228214
484,57.0,53.14246
485,55.0,52.713844
486,52.0,52.459827
487,48.0,52.51092
488,49.0,53.01214
489,54.0,53.45793
490,53.0,53.3977
491,54.0,53.441895
492,52.0,53.379883
493,54.0,53.533203
494,54.0,53.481335
495,54.0,53.423706
496,53.0,53.359673
497,53.0,53.39964
498,53.0,53.444046
499,54.0,53.493385
500,53.0,53.437096
501,58.0,53.485664
502,49.0,52.984074
503,53.0,53.426746
504,54.0,53.474167
505,53.0,53.41574
506,53.0,53.461937
507,54.0,53.513268
508,53.0,53.459187
509,54.0,53.51021
510,58.0,53.455788
511,52.0,52.95088
512,49.0,53.056534
513,53.0,53.50726
514,53.0,53.563625
515,54.0,53.62625
516,53.0,53.584724
517,58.0,53.649696
518,51.0,53.166332
519,53.0,53.40704
520,53.0,53.45227
521,55.0,53.502525
522,53.0,53.33614
523,54.0,53.37349
524,52.0,53.303875
525,54.0,53.44875
526,54.0,53.3875
527,54.0,53.319447
528,55.0,53.243828
529,57.0,53.0487
530,55.0,52.609665
531,52.0,52.344074
532,49.0,52.382305
533,49.0,52.758118
534,52.0,53.175686
535,53.0,53.306316
536,54.0,53.340355
537,53.0,53.26706
538,53.0,53.296734
539,55.0,53.32971
540,55.0,53.144123
541,53.0,52.937916
542,49.0,52.93102
543,54.0,53.367798
544,53.0,53.297554
545,53.0,53.330616
546,54.0,53.36735
547,53.0,53.29706
548,54.0,53.330067
549,53.0,53.25563
550,55.0,53.284035
551,50.0,53.093372
552,53.0,53.43708
553,54.0,53.48565
554,53.0,53.428497
555,54.0,53.47611
556,52.0,53.417896
557,53.0,53.57544
558,54.0,53.639378
559,54.0,53.599308
560,54.0,53.554787
561,53.0,53.505318
562,53.0,53.561466
563,53.0,53.62385
564,54.0,53.693172
565,53.0,53.65908
566,58.0,53.732315
567,48.0,53.25813
568,54.0,53.84237
569,54.0,53.824856
570,58.0,53.805397
571,57.0,53.339333
572,48.0,52.93259
573,54.0,53.48066
574,58.0,53.422955
575,55.0,52.9144
576,53.0,52.682667
577,48.0,52.64741
578,52.0,53.16379
579,53.0,53.293102
580,53.0,53.325672
581,53.0,53.36186
582,55.0,53.40207
583,53.0,53.22452
584,53.0,53.24947
585,53.0,53.27719
586,53.0,53.30799
587,55.0,53.342216
588,52.0,53.15802
589,53.0,53.28669
590,53.0,53.318546
591,53.0,53.353943
592,53.0,53.393272
593,53.0,53.43697
594,54.0,53.485523
595,53.0,53.42836
596,54.0,53.475956
597,53.0,53.41773
598,53.0,53.464146
599,53.0,53.51572
600,58.0,53.573025
601,53.0,53.081142
602,50.0,53.09016
603,58.0,53.433514
604,50.0,52.92613
605,53.0,53.251255
606,54.0,53.279175
607,54.0,53.19908
608,53.0,53.11009
609,53.0,53.122322
610,53.0,53.135918
611,53.0,53.151024
612,53.0,53.16781
613,53.0,53.186455
614,53.0,53.207176
615,58.0,53.230198
616,48.0,52.700222
617,53.0,53.222473
618,53.0,53.247196
619,59.0,53.274666
620,51.0,52.63852
621,53.0,52.82058
622,48.0,52.800648
623,54.0,53.334057
624,53.0,53.260063
625,53.0,53.28896
626,54.0,53.321068
627,53.0,53.245632
628,53.0,53.272926
629,53.0,53.303253
630,59.0,53.336952
631,55.0,52.707726
632,44.0,52.45303
633,52.0,53.392254
634,54.0,53.54695
635,58.0,53.496613
636,49.0,52.99624
637,54.0,53.440266
638,54.0,53.37807
639,54.0,53.308968
640,53.0,53.232185
641,53.0,53.257984
642,54.0,53.28665
643,53.0,53.20739
644,54.0,53.230434
645,53.0,53.144928
646,53.0,53.161034
647,54.0,53.17893
648,52.0,53.0877
649,53.0,53.208557
650,54.0,53.23173
651,58.0,53.146366
652,48.0,52.607075
653,53.0,53.118973
654,53.0,53.132195
655,53.0,53.146885
656,54.0,53.163208
657,53.0,53.070232
658,54.0,53.078037
659,53.0,52.975597
660,55.0,52.97289
661,55.0,52.747654
662,51.0,52.497395
663,52.0,52.663776
664,55.0,52.73753
665,50.0,52.486145
666,52.0,52.762386
667,53.0,52.847095
668,48.0,52.83011
669,53.0,53.36679
670,53.0,53.407547
671,53.0,53.45283
672,53.0,53.503147
673,54.0,53.559055
674,53.0,53.510063
675,54.0,53.56674
676,53.0,53.518597
677,54.0,53.57622
678,53.0,53.529133
679,54.0,53.58793
680,58.0,53.542145
681,49.0,53.04683
682,53.0,53.496475
683,58.0,53.551643
684,49.0,53.057384
685,54.0,53.508205
686,53.0,53.45356
687,54.0,53.503956
688,54.0,53.44884
689,53.0,53.3876
690,55.0,53.430668
691,55.0,53.256298
692,52.0,53.062553
693,52.0,53.180614
694,53.0,53.311794
695,54.0,53.34644
696,55.0,53.273823
697,52.0,53.082027
698,54.0,53.20225
699,57.0,53.113613
700,48.0,52.681793
701,53.0,53.201996
702,53.0,53.22444
703,53.0,53.249382
704,53.0,53.277092
705,54.0,53.30788
706,53.0,53.230976
707,54.0,53.25664
708,56.0,53.174046
709,57.0,52.860054
710,53.0,52.400063
711,51.0,52.333405
712,49.0,52.481564
713,53.0,52.868404
714,53.0,52.853786
715,55.0,52.837543
716,49.0,52.59727
717,53.0,52.996967
718,53.0,52.99663
719,54.0,52.99626
720,54.0,52.884735
721,55.0,52.76082
722,52.0,52.512024
723,48.0,52.568916
724,53.0,53.076576
725,52.0,53.085087
726,53.0,53.205654
727,53.0,53.228508
728,54.0,53.2539
729,55.0,53.170998
730,49.0,52.967777
731,57.0,53.40864
732,49.0,53.0096
733,53.0,53.455112
734,54.0,53.505684
735,53.0,53.45076
736,54.0,53.500847
737,54.0,53.445385
738,53.0,53.383762
739,53.0,53.426407
740,53.0,53.47379
741,53.0,53.526436
742,54.0,53.58493
743,55.0,53.53881
744,53.0,53.376457
745,58.0,53.41829
746,49.0,52.909214
747,55.0,53.34357
748,49.0,53.159523
749,54.0,53.621693
750,54.0,53.57966
751,57.0,53.532955
752,53.0,53.147728
753,56.0,53.164143
754,55.0,52.849052
755,54.0,52.61006
756,51.0,52.455624
757,49.0,52.617363
758,53.0,53.01929
759,53.0,53.02144
760,53.0,53.023823
761,55.0,53.02647
762,51.0,52.80719
763,55.0,53.00799
764,49.0,52.78666
765,53.0,53.207397
766,53.0,53.230446
767,54.0,53.256054
768,53.0,53.173393
769,54.0,53.19266
770,53.0,53.102955
771,53.0,53.114395
772,53.0,53.12711
773,53.0,53.141235
774,53.0,53.15693
775,53.0,53.17437
776,54.0,53.19375
777,54.0,53.104164
778,53.0,53.004627
779,54.0,53.005142
780,49.0,52.894604
781,58.0,53.327335
782,53.0,52.80815
783,49.0,52.78684
784,53.0,53.2076
785,53.0,53.230667
786,53.0,53.256298
787,52.0,53.28478
788,54.0,53.427532
789,53.0,53.363926
790,53.0,53.404366
791,54.0,53.4493
792,54.0,53.38811
793,54.0,53.32012
794,57.0,53.24458
795,49.0,52.827312
796,54.0,53.25257
797,54.0,53.16952
798,58.0,53.077244
799,55.0,52.530273
800,53.0,52.25586
801,48.0,52.17318
802,50.0,52.636868
803,53.0,52.929855
804,53.0,52.922066
805,53.0,52.91341
806,53.0,52.903793
807,53.0,52.893105
808,54.0,52.88123
809,54.0,52.75692
810,57.0,52.6188
811,49.0,52.132
812,50.0,52.48
813,49.0,52.755558
814,54.0,53.17284
815,53.0,53.080933
816,53.0,53.089928
817,53.0,53.099922
818,53.0,53.111027
819,53.0,53.123367
820,53.0,53.137077
821,53.0,53.15231
822,54.0,53.169235
823,54.0,53.076927
824,53.0,52.97436
825,53.0,52.971516
826,54.0,52.968353
827,51.0,52.853725
828,53.0,53.0597
829,53.0,53.066338
830,53.0,53.07371
831,53.0,53.081905
832,53.0,53.091007
833,54.0,53.10112
834,54.0,53.001244
835,53.0,52.89027
836,53.0,52.87808
837,53.0,52.864532
838,53.0,52.849483
839,53.0,52.832764
840,53.0,52.814182
841,58.0,52.793537
842,53.0,52.215042
843,47.0,52.127827
844,50.0,52.697586
845,53.0,52.99732
846,48.0,52.997025
847,54.0,53.55225
848,53.0,53.5025
849,54.0,53.558334
850,54.0,53.509262
851,54.0,53.454735
852,54.0,53.39415
853,54.0,53.32683
854,53.0,53.252033
855,54.0,53.28004
856,54.0,53.200047
857,53.0,53.111164
858,54.0,53.123516
859,55.0,53.026127
860,48.0,52.80681
861,53.0,53.3409
862,54.0,53.37878
863,53.0,53.309757
864,53.0,53.344177
865,54.0,53.382423
866,53.0,53.313805
867,53.0,53.348675
868,53.0,53.38742
869,53.0,53.43047
870,55.0,53.478302
871,57.0,53.309227
872,52.0,52.899143
873,48.0,52.99905
874,53.0,53.5545
875,57.0,53.616116
876,52.0,53.240128
877,53.0,53.37792
878,54.0,53.41991
879,54.0,53.355457
880,53.0,53.28384
881,54.0,53.31538
882,53.0,53.23931
883,53.0,53.265903
884,53.0,53.295452
885,53.0,53.32828
886,53.0,53.36476
887,55.0,53.405293
888,57.0,53.228104
889,53.0,52.809006
890,54.0,52.787785
891,49.0,52.653095
892,52.0,53.058994
893,52.0,53.176662
894,53.0,53.307404
895,54.0,53.34156
896,53.0,53.2684
897,53.0,53.29822
898,54.0,53.33136
899,53.0,53.257065
900,53.0,53.28563
901,57.0,53.317368
902,53.0,52.908188
903,49.0,52.897987
904,54.0,53.331097
905,53.0,53.256775
906,55.0,53.28531
907,52.0,53.094788
908,55.0,53.21643
909,50.0,53.018257
910,53.0,53.35362
911,54.0,53.39291
912,53.0,53.325455
913,53.0,53.361618
914,54.0,53.401802
915,53.0,53.335335
916,53.0,53.372597
917,53.0,53.413998
918,53.0,53.46
919,54.0,53.511112
920,53.0,53.45679
921,53.0,53.50755
922,55.0,53.563946
923,52.0,53.404385
924,57.0,53.56043
925,50.0,53.178253
926,53.0,53.531395
927,54.0,53.590443
928,54.0,53.544937
929,53.0,53.494373
930,53.0,53.549305
931,57.0,53.61034
932,55.0,53.23371
933,53.0,53.03746
934,53.0,53.041626
935,52.0,53.046253
936,49.0,53.162502
937,53.0,53.625004
938,55.0,53.69445
939,52.0,53.549393
940,55.0,53.721546
941,53.0,53.5795
942,54.0,53.64389
943,54.0,53.604324
944,54.0,53.56036
945,53.0,53.51151
946,54.0,53.568344
947,54.0,53.520382
948,53.0,53.46709
949,54.0,53.518993
950,53.0,53.46555
951,54.0,53.51728
952,54.0,53.463646
953,53.0,53.404053
954,56.0,53.448948
955,52.0,53.1655
956,54.0,53.295002
957,53.0,53.216667
958,52.0,53.24074
959,53.0,53.3786
960,54.0,53.42067
961,57.0,53.3563
962,52.0,52.951447
963,47.0,53.057163
964,54.0,53.730183
965,53.0,53.700203
966,53.0,53.778008
967,54.0,53.864456
968,54.0,53.849396
969,53.0,53.83266
970,58.0,53.925182
971,52.0,53.472427
972,53.0,53.636032
973,59.0,53.706703
974,48.0,53.11856
975,55.0,53.68729
976,54.0,53.541435
977,55.0,53.490482
978,58.0,53.322758
979,53.0,52.803066
980,51.0,52.781185
981,48.0,52.9791
982,53.0,53.532333
983,54.0,53.591484
984,53.0,53.546093
985,54.0,53.606773
986,57.0,53.56308
987,52.0,53.181202
988,54.0,53.312447
989,57.0,53.23605
990,49.0,52.817833
991,57.0,53.242035
992,53.0,52.824482
993,49.0,52.80498
994,53.0,53.227757
995,54.0,53.253063
996,53.0,53.17007
997,53.0,53.18897
998,54.0,53.20997
999,53.0,53.12219
1000,54.0,53.13577
1001,53.0,53.03974
1002,58.0,53.04416
1003,48.0,52.49351
1004,53.0,52.992794
1005,54.0,52.991997
1006,53.0,52.879997
1007,53.0,52.866665
1008,52.0,52.851852
1009,53.0,52.946503
1010,53.0,52.94056
1011,54.0,52.933956
1012,53.0,52.815506
1013,53.0,52.79501
1014,54.0,52.772236
1015,53.0,52.63582
1016,54.0,52.595356
1017,53.0,52.439285
1018,57.0,52.376987
1019,48.0,51.86332
1020,53.0,52.29258
1021,57.0,52.213978
1022,47.0,51.682198
1023,50.0,52.202442
1024,52.0,52.44716
1025,49.0,52.496845
1026,49.0,52.885384
1027,53.0,53.317093
1028,53.0,53.35233
1029,54.0,53.39148
1030,53.0,53.323864
1031,54.0,53.35985
1032,54.0,53.288723
1033,54.0,53.209694
1034,57.0,53.121883
1035,48.0,52.690983
1036,53.0,53.212204
1037,53.0,53.235783
1038,57.0,53.261982
1039,50.0,52.846645
1040,53.0,53.16294
1041,53.0,53.18105
1042,53.0,53.201168
1043,53.0,53.223522
1044,54.0,53.24836
1045,54.0,53.164845
1046,53.0,53.07205
1047,53.0,53.080055
1048,53.0,53.08895
1049,53.0,53.09884
1050,57.0,53.109825
1051,51.0,52.677586
1052,53.0,52.863987
1053,51.0,52.848877
1054,52.0,53.05431
1055,52.0,53.171455
1056,53.0,53.301617
1057,54.0,53.335133
1058,53.0,53.261257
1059,53.0,53.290287
1060,54.0,53.322544
1061,53.0,53.247272
1062,54.0,53.27475
1063,53.0,53.194168
1064,53.0,53.215744
1065,53.0,53.23972
1066,57.0,53.266357
1067,53.0,52.85151
1068,55.0,52.83501
1069,53.0,52.59446
1070,50.0,52.5494
1071,52.0,52.83267
1072,52.0,52.925186
1073,53.0,53.027985
1074,53.0,53.031097
1075,53.0,53.034554
1076,53.0,53.038395
1077,53.0,53.042664
1078,54.0,53.047405
1079,53.0,52.941563
1080,53.0,52.93507
1081,54.0,52.927856
1082,55.0,52.808727
1083,49.0,52.565254
1084,50.0,52.96139
1085,53.0,53.290436
1086,54.0,53.32271
1087,58.0,53.24745
1088,49.0,52.719395
1089,53.0,53.13266
1090,53.0,53.147404
1091,53.0,53.163784
1092,54.0,53.181984
1093,53.0,53.091095
1094,53.0,53.10122
1095,53.0,53.11247
1096,53.0,53.124966
1097,54.0,53.13885
1098,55.0,53.043167
1099,49.0,52.825745
1100,53.0,53.250828
1101,54.0,53.278698
1102,53.0,53.198555
1103,58.0,53.22062
1104,48.0,52.68958
1105,53.0,53.210648
1106,54.0,53.234055
1107,54.0,53.14895
1108,53.0,53.054386
1109,54.0,53.060432
1110,53.0,52.956036
1111,55.0,52.951153
1112,59.0,52.723503
1113,51.0,52.026115
1114,51.0,52.140133
1115,45.0,52.26682
1116,52.0,53.074245
1117,53.0,53.193607
1118,53.0,53.215122
1119,54.0,53.239025
1120,53.0,53.154472
1121,52.0,53.17164
1122,53.0,53.301823
1123,53.0,53.33536
1124,54.0,53.372627
1125,54.0,53.302917
1126,53.0,53.225464
1127,53.0,53.25052
1128,53.0,53.278355
1129,54.0,53.309284
1130,55.0,53.232536
1131,52.0,53.03615
1132,53.0,53.15128
1133,54.0,53.16809
1134,54.0,53.075657
1135,53.0,52.972954
1136,53.0,52.96995
1137,50.0,52.966614
1138,54.0,53.296238
1139,53.0,53.21804
1140,54.0,53.24227
1141,54.0,53.158077
1142,57.0,53.06453
1143,52.0,52.627254
1144,49.0,52.69695
1145,53.0,53.10772
1146,55.0,53.11969
1147,49.0,52.910767
1148,54.0,53.345295
1149,53.0,53.27255
1150,53.0,53.302834
1151,53.0,53.336483
1152,57.0,53.37387
1153,49.0,52.970966
1154,53.0,53.412186
1155,53.0,53.457985
1156,56.0,53.508873
1157,58.0,53.232082
1158,53.0,52.702316
1159,51.0,52.669243
1160,49.0,52.854717
1161,53.0,53.28302
1162,53.0,53.31447
1163,52.0,53.34941
1164,53.0,53.499348
1165,53.0,53.554832
1166,53.0,53.61648
1167,54.0,53.684982
1168,56.0,53.64998
1169,53.0,53.38887
1170,54.0,53.43208
1171,54.0,53.368977
1172,57.0,53.298862
1173,53.0,52.887627
1174,49.0,52.87514
1175,53.0,53.305714
1176,53.0,53.339684
1177,53.0,53.37743
1178,53.0,53.41937
1179,52.0,53.46597
1180,54.0,53.628857
1181,54.0,53.58762
1182,54.0,53.541798
1183,53.0,53.490887
1184,54.0,53.545433
1185,52.0,53.494926
1186,54.0,53.66103
1187,54.0,53.623367
1188,54.0,53.58152
1189,54.0,53.535023
1190,53.0,53.483356
1191,53.0,53.537064
1192,54.0,53.59674
1193,54.0,53.551933
1194,54.0,53.502148
1195,54.0,53.44683
1196,54.0,53.38537
1197,54.0,53.317078
1198,53.0,53.241196
1199,53.0,53.267998
1200,54.0,53.29778
1201,57.0,53.219753
1202,56.0,52.799725
1203,51.0,52.44414
1204,48.0,52.604603
1205,48.0,53.116226
1206,54.0,53.6847
1207,54.0,53.649666
1208,54.0,53.61074
1209,54.0,53.56749
1210,53.0,53.519432
1211,54.0,53.57715
1212,54.0,53.530163
1213,53.0,53.47796
1214,54.0,53.531067
1215,53.0,53.478962
1216,53.0,53.53218
1217,58.0,53.591312
1218,48.0,53.10146
1219,55.0,53.66829
1220,53.0,53.520325
1221,53.0,53.57814
1222,54.0,53.64238
1223,54.0,53.602642
1224,54.0,53.55849
1225,54.0,53.509434
1226,54.0,53.454926
1227,54.0,53.394363
1228,53.0,53.32707
1229,54.0,53.36341
1230,53.0,53.29268
1231,54.0,53.325203
1232,57.0,53.250225
1233,53.0,52.833584
1234,48.0,52.815094
1235,53.0,53.350105
1236,53.0,53.389008
1237,54.0,53.43223
1238,53.0,53.369144
1239,53.0,53.410164
1240,54.0,53.455738
1241,54.0,53.395264
1242,53.0,53.32807
1243,53.0,53.364525
1244,53.0,53.40503
1245,54.0,53.450035
1246,57.0,53.388927
1247,55.0,52.987698
1248,54.0,52.76411
1249,51.0,52.62679
1250,50.0,52.80755
1251,52.0,53.1195
1252,53.0,53.24389
1253,53.0,53.27099
1254,53.0,53.3011
1255,53.0,53.33456
1256,54.0,53.371735
1257,54.0,53.301926
1258,53.0,53.22436
1259,54.0,53.249294
1260,53.0,53.165882
1261,54.0,53.184315
1262,57.0,53.09368
1263,52.0,52.659645
1264,47.0,52.73294
1265,54.0,53.369934
1266,57.0,53.299927
1267,48.0,52.88881
1268,52.0,53.432014
1269,53.0,53.59113
1270,54.0,53.656815
1271,54.0,53.618683
1272,53.0,53.576313
1273,57.0,53.64035
1274,52.0,53.267056
1275,53.0,53.40784
1276,53.0,53.45316
1277,54.0,53.503513
1278,54.0,53.44835
1279,53.0,53.387054
1280,53.0,53.43006
1281,53.0,53.477848
1282,57.0,53.530945
1283,52.0,53.145496
1284,53.0,53.272774
1285,54.0,53.303085
1286,53.0,53.22565
1287,53.0,53.250725
1288,53.0,53.278587
1289,54.0,53.309544
1290,52.0,53.232826
1291,58.0,53.36981
1292,59.0,52.855347
1293,51.0,52.172607
1294,46.0,52.302902
1295,50.0,53.003227
1296,53.0,53.33692
1297,54.0,53.37436
1298,54.0,53.304844
1299,52.0,53.227604
1300,52.0,53.364006
1301,53.0,53.515564
1302,54.0,53.57285
1303,54.0,53.525387
1304,53.0,53.472652
1305,56.0,53.525173
1306,52.0,53.250195
1307,54.0,53.389107
1308,54.0,53.321228
1309,53.0,53.245808
1310,54.0,53.27312
1311,53.0,53.192356
1312,54.0,53.21373
1313,53.0,53.126366
1314,54.0,53.140408
1315,55.0,53.0449
1316,49.0,52.827667
1317,53.0,53.252964
1318,53.0,53.281075
1319,54.0,53.31231
1320,53.0,53.2359
1321,56.0,53.262115
1322,54.0,52.95791
1323,53.0,52.84212
1324,49.0,52.82458
1325,54.0,53.249535
1326,53.0,53.16615
1327,53.0,53.184612
1328,53.0,53.205128
1329,54.0,53.22792
1330,53.0,53.14213
1331,57.0,53.157925
1332,48.0,52.73103
1333,53.0,53.256702
1334,53.0,53.28523
1335,53.0,53.316925
1336,58.0,53.352142
1337,59.0,52.835716
1338,49.0,52.150795
1339,48.0,52.500885
1340,50.0,53.000984
1341,53.0,53.334427
1342,54.0,53.371586
1343,53.0,53.30176
1344,53.0,53.335293
1345,55.0,53.37255
1346,53.0,53.191727
1347,54.0,53.21303
1348,53.0,53.12559
1349,53.0,53.13955
1350,55.0,53.155056
1351,53.0,52.95006
1352,55.0,52.944515
1353,55.0,52.71613
1354,46.0,52.462368
1355,53.0,53.180412
1356,54.0,53.20046
1357,53.0,53.11162
1358,53.0,53.124027
1359,54.0,53.13781
1360,53.0,53.04201
1361,54.0,53.04668
1362,53.0,52.940758
1363,53.0,52.934177
1364,53.0,52.926865
1365,50.0,52.91874
1366,54.0,53.243046
1367,53.0,53.15894
1368,53.0,53.1766
1369,58.0,53.196224
1370,48.0,52.66247
1371,53.0,53.180527
1372,54.0,53.20059
1373,53.0,53.111763
1374,53.0,53.124184
1375,53.0,53.137985
1376,53.0,53.15332
1377,53.0,53.170357
1378,53.0,53.18929
1379,53.0,53.210323
1380,58.0,53.233696
1381,53.0,52.70411
1382,57.0,52.671234
1383,51.0,52.19026
1384,45.0,52.322517
1385,56.0,53.13613
1386,48.0,52.81793
1387,53.0,53.353256
1388,53.0,53.39251
1389,53.0,53.436123
1390,53.0,53.484585
1391,53.0,53.53843
1392,53.0,53.598255
1393,54.0,53.66473
1394,54.0,53.62748
1395,53.0,53.586086
1396,58.0,53.65121
1397,52.0,53.168015
1398,53.0,53.297794
1399,53.0,53.330887
1400,53.0,53.367653
1401,58.0,53.408504
1402,49.0,52.898342
1403,53.0,53.33149
1404,54.0,53.368324
1405,53.0,53.298138
1406,54.0,53.33127
1407,53.0,53.256966
1408,54.0,53.28552
1409,54.0,53.20613
1410,54.0,53.117924
1411,53.0,53.019917
1412,55.0,53.022133
1413,53.0,52.802372
1414,52.0,52.780415
1415,50.0,52.867126
1416,53.0,53.1857
1417,58.0,53.206337
1418,48.0,52.67371
1419,53.0,53.193012
1420,53.0,53.21446
1421,54.0,53.23829
1422,53.0,53.153652
1423,53.0,53.170727
1424,53.0,53.189697
1425,54.0,53.210777
1426,58.0,53.123085
1427,53.0,52.581207
1428,52.0,52.534676
1429,51.0,52.594086
1430,49.0,52.77121
1431,54.0,53.19023
1432,53.0,53.100258
1433,57.0,53.1114
1434,48.0,52.679333
1435,53.0,53.19926
1436,53.0,53.221405
1437,54.0,53.24601
1438,53.0,53.16223
1439,54.0,53.18026
1440,53.0,53.089176
1441,53.0,53.099087
1442,54.0,53.1101
1443,55.0,53.011223
1444,52.0,52.79025
1445,56.0,52.878056
1446,48.0,52.531178
1447,53.0,53.034645
1448,53.0,53.038498
1449,57.0,53.042778
1450,49.0,52.60309
1451,53.0,53.00343
1452,53.0,53.00381
1453,53.0,53.00424
1454,53.0,53.00471
1455,53.0,53.005238
1456,53.0,53.00582
1457,53.0,53.00647
1458,53.0,53.00719
1459,53.0,53.00799
1460,54.0,53.00888
1461,54.0,52.898754
1462,52.0,52.776394
1463,53.0,52.86266
1464,53.0,52.8474
1465,53.0,52.83045
1466,50.0,52.81161
1467,53.0,53.124016
1468,53.0,53.1378
1469,53.0,53.15311
1470,56.0,53.170124
1471,57.0,52.855698
1472,53.0,52.39522
1473,55.0,52.328026
1474,49.0,52.03114
1475,49.0,52.36793
1476,53.0,52.742146
1477,54.0,52.713497
1478,53.0,52.570553
1479,50.0,52.52284
1480,53.0,52.803154
1481,55.0,52.781284
1482,48.0,52.534763
1483,53.0,53.038628
1484,52.0,53.042923
1485,54.0,53.158806
1486,53.0,53.06534
1487,54.0,53.0726
1488,53.0,52.96956
1489,53.0,52.96618
1490,53.0,52.96242
1491,53.0,52.95825
1492,53.0,52.953613
1493,53.0,52.948463
1494,55.0,52.942738
1495,49.0,52.714153
1496,53.0,53.126835
1497,53.0,53.14093
1498,52.0,53.15659
1499,54.0,53.2851
1500,53.0,53.205666
1501,53.0,53.22852
1502,53.0,53.253914
1503,57.0,53.282127
1504,53.0,52.86903
1505,48.0,52.85448
1506,53.0,53.39387
1507,54.0,53.437637
1508,53.0,53.375153
1509,53.0,53.41684
1510,57.0,53.463158
1511,51.0,53.070175
1512,53.0,53.300198
1513,53.0,53.333553
1514,52.0,53.370617
1515,55.0,53.522907
1516,57.0,53.358788
1517,53.0,52.95421
1518,52.0,52.949123
1519,49.0,53.05458
1520,54.0,53.50509
1521,54.0,53.4501
1522,54.0,53.389
1523,54.0,53.32111
1524,53.0,53.245678
1525,53.0,53.27298
1526,54.0,53.303314
1527,53.0,53.225903
1528,54.0,53.251007
1529,53.0,53.167786
1530,52.0,53.18643
1531,53.0,53.31826
1532,53.0,53.353626
1533,57.0,53.39292
1534,53.0,52.992134
1535,49.0,52.991264
1536,54.0,53.43474
1537,53.0,53.37193
1538,53.0,53.413258
1539,54.0,53.45918
1540,54.0,53.399086
1541,53.0,53.332317
1542,54.0,53.369244
1543,55.0,53.29916
1544,52.0,53.11018
1545,52.0,53.233536
1546,53.0,53.370598
1547,53.0,53.411777
1548,54.0,53.45753
1549,54.0,53.397255
1550,52.0,53.330284
1551,54.0,53.478092
1552,53.0,53.4201
1553,53.0,53.46678
1554,54.0,53.51865
1555,53.0,53.465168
1556,54.0,53.516857
1557,53.0,53.463173
1558,54.0,53.51464
1559,58.0,53.460712
1560,53.0,52.95635
1561,55.0,52.9515
1562,53.0,52.723892
1563,53.0,52.693214
1564,50.0,52.65913
1565,48.0,52.95459
1566,54.0,53.505104
1567,53.0,53.450115
1568,53.0,53.50013
1569,54.0,53.555702
1570,53.0,53.506336
1571,53.0,53.5626
1572,54.0,53.625114
1573,53.0,53.58346
1574,53.0,53.648293
1575,56.0,53.72033
1576,53.0,53.467037
1577,53.0,53.518932
1578,54.0,53.576595
1579,53.0,53.52955
1580,54.0,53.58839
1581,54.0,53.542656
1582,54.0,53.49184
1583,55.0,53.43538
1584,53.0,53.261536
1585,54.0,53.290596
1586,54.0,53.211773
1587,53.0,53.12419
1588,53.0,53.137993
1589,53.0,53.153328
1590,54.0,53.17037
1591,54.0,53.078186
1592,53.0,52.97576
1593,55.0,52.973072
1594,53.0,52.74786
1595,47.0,52.719845
1596,53.0,53.355385
1597,53.0,53.394875
1598,54.0,53.43875
1599,54.0,53.37639
1600,53.0,53.3071
1601,54.0,53.34122
1602,54.0,53.268024
1603,53.0,53.186695
1604,53.0,53.20744
1605,58.0,53.23049
1606,53.0,52.70055
1607,53.0,52.667282
1608,51.0,52.630318
1609,48.0,52.811466
1610,54.0,53.346077
1611,53.0,53.27342
1612,53.0,53.303802
1613,53.0,53.33756
1614,53.0,53.37507
1615,54.0,53.416744
1616,53.0,53.351936
1617,53.0,53.39104
1618,53.0,53.434494
1619,53.0,53.482773
1620,54.0,53.536415
1621,53.0,53.484905
1622,54.0,53.538784
1623,58.0,53.487537
1624,55.0,52.986156
1625,47.0,52.762398
1626,52.0,53.402664
1627,53.0,53.558517
1628,54.0,53.62058
1629,54.0,53.57842
1630,53.0,53.531578
1631,53.0,53.590645
1632,54.0,53.656273
1633,53.0,53.61808
1634,54.0,53.68676
1635,53.0,53.651955
1636,53.0,53.724396
1637,54.0,53.804886
1638,54.0,53.783207
1639,53.0,53.759117
1640,60.0,53.843464
1641,50.0,53.159405
1642,54.0,53.510452
1643,53.0,53.45606
1644,54.0,53.506733
1645,54.0,53.451923
1646,53.0,53.391026
1647,54.0,53.434475
1648,53.0,53.37164
1649,53.0,53.412933
1650,57.0,53.458817
1651,55.0,53.065353
1652,52.0,52.850395
1653,54.0,52.944885
1654,52.0,52.827652
1655,49.0,52.919613
1656,58.0,53.355125
1657,51.0,52.83903
1658,52.0,53.04337
1659,53.0,53.159298
1660,53.0,53.177
1661,53.0,53.196667
1662,53.0,53.21852
1663,53.0,53.2428
1664,53.0,53.269783
1665,53.0,53.299763
1666,53.0,53.333073
1667,54.0,53.370083
1668,53.0,53.30009
1669,54.0,53.333435
1670,53.0,53.259373
1671,54.0,53.288193
1672,57.0,53.209103
1673,53.0,52.78789
1674,48.0,52.764328
1675,54.0,53.2937
1676,53.0,53.21522
1677,54.0,53.239136
1678,53.0,53.154594
1679,54.0,53.171772
1680,53.0,53.079746
1681,53.0,53.088608
1682,53.0,53.098454
1683,55.0,53.109394
1684,53.0,52.899326
1685,50.0,52.88814
1686,52.0,53.20905
1687,53.0,53.343388
1688,58.0,53.381542
1689,52.0,52.86838
1690,51.0,52.96487
1691,53.0,53.183193
1692,53.0,53.20355
1693,53.0,53.226166
1694,54.0,53.251297
1695,57.0,53.168106
1696,53.0,52.74234
1697,52.0,52.713715
1698,48.0,52.79302
1699,54.0,53.325577
1700,53.0,53.25064
1701,54.0,53.278492
1702,53.0,53.198322
1703,53.0,53.22036
1704,58.0,53.244846
1705,48.0,52.7165
1706,53.0,53.24056
1707,53.0,53.26729
1708,53.0,53.29699
1709,53.0,53.32999
1710,54.0,53.366657
1711,53.0,53.296284
1712,54.0,53.32921
1713,55.0,53.254677
1714,55.0,53.060753
1715,52.0,52.845284
1716,52.0,52.939205
1717,53.0,53.043564
1718,53.0,53.048405
1719,53.0,53.053787
1720,57.0,53.059765
1721,48.0,52.621964
1722,53.0,53.135517
1723,52.0,53.150578
1724,53.0,53.27842
1725,53.0,53.309357
1726,54.0,53.34373
1727,53.0,53.270813
1728,53.0,53.300907
1729,53.0,53.334343
1730,53.0,53.371494
1731,54.0,53.412773
1732,53.0,53.347527
1733,54.0,53.386143
1734,53.0,53.317936
1735,53.0,53.353264
1736,58.0,53.392517
1737,48.0,52.880577
1738,58.0,53.422867
1739,51.0,52.9143
1740,57.0,53.127003
1741,53.0,52.69667
1742,52.0,52.66297
1743,50.0,52.736637
1744,55.0,53.04071
1745,52.0,52.823013
1746,50.0,52.91446
1747,53.0,53.23829
1748,53.0,53.264767
1749,53.0,53.29419
1750,54.0,53.326878
1751,53.0,53.252087
1752,58.0,53.280098
1753,48.0,52.75567
1754,55.0,53.284077
1755,52.0,53.093422
1756,53.0,53.214912
1757,54.0,53.238792
1758,53.0,53.154213
1759,53.0,53.17135
1760,53.0,53.19039
1761,53.0,53.211548
1762,53.0,53.235054
1763,53.0,53.261173
1764,53.0,53.290195
1765,53.0,53.32244
1766,53.0,53.35827
1767,53.0,53.39808
1768,57.0,53.442314
1769,50.0,53.047016
1770,54.0,53.385574
1771,53.0,53.317307
1772,53.0,53.352566
1773,55.0,53.391743
1774,55.0,53.213047
1775,53.0,53.0145
1776,49.0,53.016113
1777,54.0,53.46235
1778,53.0,53.40261
1779,53.0,53.44735
1780,53.0,53.49706
1781,53.0,53.552288
1782,54.0,53.613655
1783,53.0,53.57073
1784,59.0,53.634144
1785,53.0,53.037937
1786,53.0,53.042156
1787,54.0,53.04684
1788,48.0,52.940933
1789,54.0,53.48993
1790,54.0,53.433254
1791,53.0,53.37028
1792,53.0,53.411427
1793,54.0,53.45714
1794,53.0,53.396824
1795,54.0,53.440918
1796,53.0,53.378796
1797,53.0,53.420887
1798,54.0,53.467655
1799,53.0,53.408504
1800,55.0,53.453896
1801,52.0,53.28211
1802,53.0,53.424564
1803,58.0,53.47174
1804,51.0,52.9686
1805,53.0,53.187336
1806,50.0,53.208153
1807,54.0,53.564617
1808,54.0,53.516243
1809,54.0,53.46249
1810,54.0,53.402767
1811,53.0,53.336407
1812,53.0,53.373787
1813,53.0,53.41532
1814,53.0,53.46147
1815,53.0,53.51275
1816,58.0,53.569725
1817,49.0,53.077477
1818,54.0,53.53053
1819,54.0,53.478367
1820,53.0,53.420406
1821,53.0,53.46712
1822,54.0,53.519024
1823,54.0,53.46558
1824,53.0,53.4062
1825,54.0,53.451336
1826,54.0,53.390373
1827,53.0,53.322636
1828,53.0,53.358486
1829,58.0,53.39832
1830,55.0,52.887024
1831,53.0,52.652252
1832,49.0,52.613617
1833,52.0,53.01513
1834,58.0,53.127922
1835,52.0,52.586582
1836,50.0,52.65176
1837,49.0,52.946404
1838,53.0,53.38489
1839,54.0,53.427658
1840,53.0,53.364063
1841,54.0,53.40452
1842,53.0,53.338352
1843,54.0,53.37595
1844,54.0,53.30661
1845,53.0,53.229565
1846,54.0,53.255074
1847,53.0,53.172302
1848,55.0,53.19145
1849,52.0,52.990498
1850,53.0,53.10055
1851,53.0,53.111725
1852,57.0,53.12414
1853,48.0,52.693493
1854,53.0,53.214993
1855,54.0,53.238884
1856,53.0,53.154316
1857,53.0,53.171463
1858,53.0,53.190517
1859,53.0,53.21169
1860,53.0,53.23521
1861,53.0,53.26135
1862,54.0,53.29039
1863,54.0,53.211544
1864,55.0,53.12394
1865,52.0,52.91549
1866,48.0,53.017212
1867,53.0,53.574684
1868,57.0,53.638542
1869,51.0,53.26505
1870,54.0,53.516724
1871,54.0,53.463024
1872,54.0,53.40336
1873,53.0,53.337063
1874,58.0,53.374516
1875,55.0,52.860577
1876,53.0,52.622864
1877,48.0,52.580963
1878,52.0,53.089962
1879,53.0,53.21107
1880,53.0,53.234524
1881,53.0,53.260586
1882,54.0,53.289543
1883,53.0,53.2106
1884,53.0,53.234005
1885,53.0,53.26001
1886,53.0,53.288902
1887,53.0,53.321003
1888,54.0,53.356674
1889,53.0,53.285194
1890,54.0,53.316887
1891,53.0,53.240986
1892,53.0,53.267765
1893,53.0,53.29752
1894,57.0,53.330578
1895,54.0,52.922863
1896,49.0,52.80318
1897,53.0,53.225758
1898,54.0,53.250843
1899,53.0,53.167603
1900,53.0,53.186226
1901,55.0,53.20692
1902,48.0,53.00769
1903,53.0,53.564102
1904,54.0,53.62678
1905,53.0,53.58531
1906,54.0,53.65035
1907,53.0,53.6115
1908,54.0,53.679447
1909,55.0,53.64383
1910,54.0,53.493145
1911,53.0,53.43683
1912,53.0,53.485367
1913,54.0,53.5393
1914,54.0,53.48811
1915,54.0,53.431232
1916,54.0,53.368034
1917,57.0,53.297817
1918,49.0,52.886463
1919,57.0,53.31829
1920,53.0,52.909214
1921,53.0,52.899128
1922,48.0,52.887924
1923,54.0,53.43103
1924,58.0,53.367813
1925,53.0,52.853127
1926,48.0,52.83681
1927,54.0,53.374237
1928,53.0,53.304707
1929,54.0,53.338566
1930,53.0,53.26507
1931,53.0,53.294525
1932,54.0,53.32725
1933,54.0,53.252502
1934,52.0,53.169445
1935,53.0,53.299385
1936,53.0,53.332653
1937,53.0,53.369617
1938,54.0,53.410686
1939,53.0,53.345207
1940,53.0,53.383568
1941,53.0,53.42619
1942,54.0,53.473545
1943,54.0,53.41505
1944,52.0,53.350056
1945,54.0,53.50006
1946,54.0,53.44451
1947,54.0,53.38279
1948,53.0,53.31421
1949,54.0,53.349125
1950,53.0,53.276806
1951,52.0,53.307564
1952,54.0,53.45285
1953,54.0,53.392056
1954,58.0,53.324505
1955,53.0,52.805008
1956,48.0,52.783344
1957,52.0,53.31483
1958,53.0,53.460922
1959,53.0,53.51214
1960,53.0,53.569046
1961,53.0,53.632275
1962,54.0,53.70253
1963,55.0,53.669476
1964,57.0,53.52164
1965,52.0,53.13516
1966,54.0,53.261288
1967,48.0,53.179207
1968,54.0,53.754677
1969,54.0,53.727417
1970,54.0,53.69713
1971,53.0,53.663475
1972,54.0,53.737198
1973,53.0,53.707996
1974,54.0,53.786663
1975,56.0,53.76296
1976,52.0,53.5144
1977,54.0,53.682667
1978,54.0,53.647408
1979,54.0,53.60823
1980,53.0,53.5647
1981,53.0,53.62745
1982,58.0,53.697166
1983,51.0,53.219074
1984,55.0,53.46564
1985,53.0,53.29516
1986,52.0,53.327957
1987,54.0,53.47551
1988,53.0,53.417233
1989,53.0,53.463593
1990,54.0,53.515106
1991,55.0,53.461227
1992,52.0,53.290253
1993,53.0,53.433613
1994,53.0,53.481792
1995,53.0,53.535328
1996,54.0,53.59481
1997,53.0,53.54979
1998,55.0,53.610878
1999,53.0,53.45653
2000,54.0,53.50726
2001,53.0,53.45251
2002,53.0,53.502792
2003,53.0,53.55866
2004,54.0,53.620735
2005,54.0,53.578594
2006,53.0,53.531773
2007,56.0,53.590862
2008,53.0,53.323185
2009,58.0,53.359097
2010,53.0,52.84344
2011,51.0,52.826046
2012,49.0,53.028942
2013,54.0,53.4766
2014,58.0,53.418446
2015,52.0,52.909386
2016,48.0,53.01043
2017,54.0,53.567146
2018,53.0,53.51905
2019,54.0,53.576725
2020,54.0,53.529694
2021,54.0,53.477436
2022,53.0,53.419373
2023,58.0,53.465973
2024,51.0,52.962193
2025,53.0,53.180218
2026,53.0,53.200245
2027,54.0,53.222496
2028,53.0,53.13611
2029,53.0,53.151234
2030,53.0,53.16804
2031,55.0,53.186714
2032,49.0,52.98524
2033,53.0,53.428047
2034,54.0,53.47561
2035,53.0,53.417343
2036,54.0,53.46372
2037,53.0,53.404133
2038,53.0,53.44904
2039,58.0,53.498936
2040,51.0,52.99882
2041,54.0,53.220917
2042,54.0,53.134354
2043,53.0,53.03817
2044,55.0,53.04241
2045,53.0,52.824905
2046,51.0,52.805454
2047,52.0,53.00606
2048,52.0,53.117847
2049,53.0,53.242054
2050,54.0,53.26895
2051,53.0,53.187725
2052,53.0,53.208588
2053,58.0,53.231766
2054,55.0,52.701965
2055,55.0,52.44663
2056,46.0,52.16292
2057,50.0,52.847694
2058,53.0,53.164104
2059,54.0,53.18234
2060,53.0,53.091488
2061,53.0,53.101654
2062,53.0,53.112953
2063,54.0,53.125507
2064,53.0,53.02834
2065,52.0,53.03149
2066,54.0,53.146103
2067,53.0,53.051224
2068,53.0,53.05692
2069,53.0,53.063244
2070,53.0,53.070274
2071,58.0,53.078083
2072,48.0,52.531204
2073,53.0,53.03467
2074,55.0,53.038525
2075,53.0,52.820583
2076,51.0,52.80065
2077,52.0,53.00073
2078,53.0,53.11192
2079,53.0,53.12436
2080,55.0,53.13818
2081,49.0,52.931313
2082,53.0,53.368126
2083,53.0,53.40903
2084,53.0,53.454483
2085,53.0,53.504982
2086,54.0,53.561092
2087,57.0,53.512325
2088,49.0,53.124805
2089,54.0,53.58312
2090,53.0,53.536797
2091,54.0,53.596443
2092,54.0,53.5516
2093,53.0,53.501778
2094,53.0,53.557533
2095,54.0,53.619484
2096,58.0,53.577206
2097,50.0,53.085785
2098,59.0,53.42865
2099,55.0,52.809612
2100,53.0,52.56624
2101,47.0,52.518044
2102,52.0,53.13116
2103,57.0,53.256847
2104,51.0,52.840942
2105,55.0,53.045494
2106,51.0,52.828327
2107,50.0,53.03148
2108,53.0,53.368313
2109,53.0,53.409237
2110,53.0,53.454712
2111,53.0,53.505238
2112,55.0,53.56138
2113,53.0,53.401535
2114,53.0,53.44615
2115,53.0,53.495728
2116,55.0,53.55081
2117,54.0,53.389793
2118,55.0,53.32199
2119,57.0,53.135548
2120,49.0,52.706165
2121,54.0,53.11796
2122,53.0,53.01996
2123,53.0,53.02218
2124,53.0,53.024647
2125,54.0,53.027386
2126,53.0,52.919315
2127,53.0,52.910355
2128,54.0,52.9004
2129,53.0,52.77822
2130,50.0,52.753582
2131,54.0,53.059536
2132,53.0,52.95504
2133,53.0,52.950047
2134,54.0,52.9445
2135,55.0,52.82722
2136,49.0,52.585804
2137,52.0,52.984226
2138,53.0,53.093586
2139,53.0,53.10399
2140,53.0,53.115543
2141,53.0,53.128384
2142,54.0,53.14265
2143,58.0,53.04739
2144,53.0,52.4971
2145,54.0,52.441227
2146,45.0,52.26803
2147,52.0,53.07559
2148,54.0,53.1951
2149,53.0,53.105663
2150,54.0,53.117405
2151,55.0,53.019337
2152,49.0,52.799263
2153,53.0,53.221405
2154,54.0,53.24601
2155,53.0,53.16223
2156,52.0,53.18026
2157,53.0,53.3114
2158,53.0,53.346004
2159,54.0,53.384453
2160,53.0,53.31606
2161,57.0,53.35118
2162,52.0,52.94576
2163,53.0,53.050842
2164,54.0,53.056496
2165,57.0,52.95166
2166,52.0,52.501846
2167,49.0,52.55761
2168,52.0,52.9529
2169,53.0,53.058777
2170,53.0,53.06531
2171,53.0,53.07257
2172,53.0,53.080635
2173,54.0,53.089596
2174,53.0,52.988438
2175,53.0,52.987156
2176,53.0,52.985733
2177,53.0,52.98415
2178,52.0,52.98239
2179,53.0,53.091545
2180,53.0,53.10172
2181,53.0,53.11302
2182,53.0,53.125584
2183,55.0,53.139538
2184,52.0,52.93282
2185,53.0,53.036465
2186,54.0,53.04052
2187,53.0,52.93391
2188,57.0,52.92657
2189,53.0,52.47397
2190,52.0,52.415524
2191,49.0,52.461693
2192,53.0,52.846325
2193,54.0,52.82925
2194,53.0,52.699165
2195,52.0,52.66574
2196,52.0,52.73971
2197,49.0,52.821903
2198,53.0,53.24656
2199,53.0,53.273956
2200,52.0,53.304398
2201,53.0,53.44933
2202,54.0,53.499256
2203,54.0,53.44362
2204,53.0,53.381798
2205,53.0,53.42422
2206,53.0,53.47136
2207,53.0,53.523735
2208,54.0,53.581932
2209,53.0,53.53548
2210,59.0,53.594982
2211,49.0,52.994423
2212,54.0,53.438248
2213,53.0,53.37583
2214,53.0,53.417595
2215,53.0,53.463997
2216,54.0,53.515553
2217,53.0,53.461723
2218,53.0,53.513027
2219,54.0,53.570034
2220,53.0,53.52226
2221,53.0,53.580288
2222,54.0,53.644768
2223,54.0,53.605297
2224,54.0,53.56144
2225,57.0,53.51271
2226,54.0,53.125233
2227,49.0,53.028034
2228,54.0,53.475594
2229,53.0,53.417324
2230,54.0,53.463696
2231,53.0,53.404106
2232,55.0,53.44901
2233,58.0,53.27668
2234,54.0,52.75187
2235,53.0,52.61319
2236,48.0,52.570213
2237,52.0,53.07802
2238,54.0,53.1978
2239,53.0,53.108665
2240,53.0,53.120743
2241,54.0,53.134163
2242,54.0,53.03796
2243,52.0,52.93107
2244,52.0,53.03452
2245,53.0,53.149467
2246,54.0,53.166077
2247,52.0,53.073418
2248,53.0,53.192688
2249,53.0,53.2141
2250,54.0,53.237892
2251,53.0,53.153214
2252,53.0,53.17024
2253,54.0,53.189156
2254,53.0,53.09906
2255,57.0,53.11007
2256,53.0,52.677856
2257,49.0,52.642067
2258,53.0,53.04674
2259,55.0,53.051937
2260,50.0,52.835487
2261,53.0,53.150543
2262,53.0,53.167274
2263,53.0,53.185863
2264,53.0,53.206516
2265,53.0,53.229465
2266,53.0,53.254963
2267,53.0,53.283295
2268,54.0,53.314774
2269,53.0,53.238636
2270,53.0,53.265152
2271,54.0,53.294617
2272,53.0,53.21624
2273,53.0,53.24027
2274,53.0,53.266968
2275,58.0,53.296635
2276,51.0,52.77404
2277,56.0,52.97116
2278,55.0,52.634624
2279,51.0,52.371807
2280,49.0,52.524235
2281,49.0,52.915817
2282,54.0,53.350906
2283,53.0,53.278786
2284,53.0,53.309765
2285,58.0,53.344185
2286,53.0,52.826874
2287,48.0,52.80764
2288,54.0,53.341824
2289,53.0,53.268692
2290,53.0,53.29855
2291,54.0,53.331722
2292,53.0,53.25747
2293,53.0,53.28608
2294,54.0,53.317867
2295,53.0,53.242073
2296,53.0,53.26897
2297,53.0,53.29886
2298,54.0,53.332066
2299,53.0,53.25785
2300,53.0,53.286503
2301,54.0,53.31834
2302,53.0,53.2426
2303,53.0,53.269558
2304,54.0,53.29951
2305,53.0,53.22168
2306,54.0,53.24631
2307,53.0,53.162567
2308,53.0,53.180634
2309,52.0,53.200706
2310,56.0,53.334118
2311,52.0,53.03791
2312,54.0,53.153236
2313,53.0,53.05915
2314,53.0,53.065727
2315,58.0,53.073032
2316,53.0,52.525593
2317,48.0,52.472885
2318,52.0,52.969875
2319,53.0,53.07764
2320,54.0,53.08627
2321,53.0,52.984745
2322,55.0,52.98305
2323,55.0,52.75895
2324,55.0,52.509945
2325,46.0,52.233273
2326,50.0,52.92586
2327,52.0,53.250957
2328,54.0,53.389954
2329,53.0,53.32217
2330,53.0,53.35797
2331,52.0,53.397747
2332,53.0,53.553055
2333,53.0,53.614506
2334,54.0,53.682785
2335,53.0,53.647537
2336,53.0,53.719486
2337,52.0,53.79943
2338,53.0,53.999367
2339,54.0,54.11041
2340,58.0,54.122677
2341,52.0,53.691864
2342,58.0,53.87985
2343,51.0,53.422054
2344,54.0,53.691174
2345,57.0,53.65686
2346,53.0,53.2854
2347,52.0,53.317112
2348,52.0,53.46346
2349,54.0,53.626064
2350,53.0,53.584515
2351,54.0,53.649464
2352,53.0,53.610516
2353,54.0,53.678352
2354,54.0,53.642612
2355,54.0,53.6029
2356,54.0,53.55878
2357,53.0,53.509754
2358,59.0,53.566395
2359,49.0,52.96266
2360,53.0,53.402958
2361,54.0,53.447735
2362,53.0,53.38637
2363,53.0,53.429306
2364,54.0,53.47701
2365,54.0,53.4189
2366,54.0,53.354332
2367,58.0,53.28259
2368,55.0,52.758434
2369,53.0,52.509373
2370,48.0,52.45486
2371,52.0,52.94985
2372,53.0,53.05539
2373,55.0,53.061546
2374,52.0,52.846165
2375,52.0,52.94018
2376,55.0,53.044647
2377,52.0,52.82739
2378,50.0,52.919323
2379,53.0,53.243694
2380,53.0,53.270775
2381,53.0,53.30086
2382,54.0,53.334293
2383,53.0,53.260326
2384,53.0,53.289253
2385,54.0,53.321396
2386,53.0,53.245995
2387,53.0,53.27333
2388,54.0,53.303703
2389,57.0,53.226337
2390,53.0,52.80704
2391,49.0,52.785603
2392,54.0,53.206226
2393,53.0,53.11803
2394,55.0,53.13115
2395,53.0,52.9235
2396,53.0,52.915
2397,53.0,52.90556
2398,53.0,52.89507
2399,54.0,52.88341
2400,53.0,52.759346
2401,49.0,52.73261
2402,49.0,53.147343
2403,54.0,53.60816
2404,54.0,53.56462
2405,53.0,53.516247
2406,53.0,53.57361
2407,53.0,53.637344
2408,53.0,53.708164
2409,54.0,53.78685
2410,53.0,53.76317
2411,54.0,53.84797
2412,53.0,53.831078
2413,55.0,53.92342
2414,57.0,53.803802
2415,52.0,53.44867
2416,55.0,53.609634
2417,54.0,53.45515
2418,58.0,53.39461
2419,53.0,52.882904
2420,48.0,52.869896
2421,54.0,53.411
2422,53.0,53.345554
2423,53.0,53.383953
2424,53.0,53.426617
2425,54.0,53.474022
2426,54.0,53.41558
2427,53.0,53.350647
2428,59.0,53.38961
2429,50.0,52.766235
2430,54.0,53.073597
2431,57.0,52.970665
2432,53.0,52.52296
2433,53.0,52.46996
2434,48.0,52.411068
2435,50.0,52.901188
2436,53.0,53.223545
2437,54.0,53.248386
2438,53.0,53.164875
2439,54.0,53.183197
2440,53.0,53.09244
2441,53.0,53.102715
2442,53.0,53.11413
2443,53.0,53.126812
2444,55.0,53.140903
2445,51.0,52.934338
2446,53.0,53.14927
2447,53.0,53.165855
2448,57.0,53.184284
2449,53.0,52.760315
2450,48.0,52.733685
2451,53.0,53.25965
2452,53.0,53.288506
2453,53.0,53.320564
2454,54.0,53.356186
2455,54.0,53.284653
2456,54.0,53.20517
2457,54.0,53.116856
2458,53.0,53.018726
2459,54.0,53.02081
2460,56.0,52.91201
2461,51.0,52.568905
2462,49.0,52.743233
2463,53.0,53.15915
2464,54.0,53.176834
2465,53.0,53.08537
2466,53.0,53.094856
2467,54.0,53.105396
2468,53.0,53.005997
2469,53.0,53.006664
2470,53.0,53.00741
2471,53.0,53.008232
2472,54.0,53.009148
2473,53.0,52.89905
2474,53.0,52.887836
2475,54.0,52.875378
2476,60.0,52.75042
2477,48.0,51.944912
2478,51.0,52.383236
2479,49.0,52.53693
2480,48.0,52.92992
2481,54.0,53.47769
2482,54.0,53.41966
2483,54.0,53.355175
2484,54.0,53.283527
2485,53.0,53.20392
2486,53.0,53.226578
2487,53.0,53.251755
2488,53.0,53.27973
2489,53.0,53.310814
2490,54.0,53.345352
2491,55.0,53.272614
2492,53.0,53.080685
2493,53.0,53.089653
2494,53.0,53.099617
2495,53.0,53.110687
2496,53.0,53.12299
2497,53.0,53.136658
2498,53.0,53.151844
2499,54.0,53.168716
2500,53.0,53.07635
2501,53.0,53.08484
2502,53.0,53.09427
2503,53.0,53.104744
2504,54.0,53.116383
2505,57.0,53.018204
2506,54.0,52.575783
2507,48.0,52.417538
2508,54.0,52.90838
2509,48.0,52.787086
2510,53.0,53.31899
2511,53.0,53.354435
2512,54.0,53.393818
2513,53.0,53.326466
2514,53.0,53.362743
2515,54.0,53.40305
2516,57.0,53.336723
2517,53.0,52.92969
2518,52.0,52.921883
2519,48.0,53.024315
2520,54.0,53.582573
2521,54.0,53.536194
2522,56.0,53.48466
2523,51.0,53.20518
2524,58.0,53.450203
2525,48.0,52.94467
2526,53.0,53.494083
2527,54.0,53.548985
2528,53.0,53.49887
2529,53.0,53.554302
2530,53.0,53.615894
2531,54.0,53.68433
2532,53.0,53.649254
2533,53.0,53.721397
2534,54.0,53.801556
2535,57.0,53.779507
2536,55.0,53.421673
2537,50.0,53.246304
2538,55.0,53.607006
2539,52.0,53.45223
2540,56.0,53.613586
2541,52.0,53.348434
2542,54.0,53.49826
2543,54.0,53.442513
2544,53.0,53.38057
2545,53.0,53.42286
2546,53.0,53.469845
2547,53.0,53.522053
2548,54.0,53.58006
2549,53.0,53.533398
2550,54.0,53.592667
2551,54.0,53.54741
2552,53.0,53.49712
2553,53.0,53.552357
2554,58.0,53.61373
2555,51.0,53.12637
2556,54.0,53.362637
2557,53.0,53.291817
2558,52.0,53.32424
2559,54.0,53.471382
2560,55.0,53.412647
2561,57.0,53.236275
2562,53.0,52.818085
2563,51.0,52.797874
2564,49.0,52.997643
2565,56.0,53.441826
2566,55.0,53.15759
2567,50.0,52.952877
2568,52.0,53.280975
2569,53.0,53.423306
2570,58.0,53.47034
2571,50.0,52.96705
2572,53.0,53.296722
2573,55.0,53.329693
2574,49.0,53.144104
2575,53.0,53.60456
2576,54.0,53.671738
2577,53.0,53.635265
2578,53.0,53.705853
2579,53.0,53.784283
2580,54.0,53.87143
2581,54.0,53.857143
2582,54.0,53.84127
2583,54.0,53.823635
2584,54.0,53.80404
2585,53.0,53.782265
2586,59.0,53.869186
2587,51.0,53.299095
2588,54.0,53.554554
2589,58.0,53.50506
2590,49.0,53.005623
2591,54.0,53.45069
2592,53.0,53.389656
2593,53.0,53.432953
2594,53.0,53.48106
2595,57.0,53.53451
2596,55.0,53.14946
2597,52.0,52.943848
2598,50.0,53.04872
2599,53.0,53.38747
2600,53.0,53.430523
2601,53.0,53.47836
2602,57.0,53.531513
2603,49.0,53.146126
2604,54.0,53.606808
2605,57.0,53.563118
2606,55.0,53.181244
2607,53.0,52.97916
2608,52.0,52.97685
2609,49.0,53.08539
2610,53.0,53.539318
2611,54.0,53.599243
2612,54.0,53.554714
2613,54.0,53.505238
2614,53.0,53.450264
2615,54.0,53.500294
2616,53.0,53.44477
2617,54.0,53.494194
2618,58.0,53.437992
2619,48.0,52.931103
2620,54.0,53.479004
2621,53.0,53.421116
2622,55.0,53.46791
2623,52.0,53.29768
2624,53.0,53.441868
2625,55.0,53.490967
2626,55.0,53.3233
2627,52.0,53.137
2628,52.0,53.263336
2629,54.0,53.40371
2630,54.0,53.337456
2631,53.0,53.26384
2632,53.0,53.293156
2633,54.0,53.32573
2634,57.0,53.25081
2635,49.0,52.834232
2636,53.0,53.260258
2637,53.0,53.289177
2638,58.0,53.32131
2639,48.0,52.801456
2640,53.0,53.334953
2641,53.0,53.372173
2642,53.0,53.41353
2643,53.0,53.45948
2644,53.0,53.510536
2645,54.0,53.567265
2646,52.0,53.519184
2647,53.0,53.687984
2648,53.0,53.76443
2649,54.0,53.84937
2650,61.0,53.83263
2651,53.0,53.03626
2652,53.0,53.04029
2653,49.0,53.04477
2654,56.0,53.494186
2655,53.0,53.215767
2656,55.0,53.239742
2657,52.0,53.04416
2658,52.0,53.160175
2659,53.0,53.289085
2660,54.0,53.32121
2661,53.0,53.24579
2662,53.0,53.2731
2663,54.0,53.303448
2664,53.0,53.22605
2665,53.0,53.25117
2666,57.0,53.27908
2667,49.0,52.865643
2668,54.0,53.29516
2669,53.0,53.216843
2670,54.0,53.24094
2671,53.0,53.1566
2672,53.0,53.174004
2673,53.0,53.19334
2674,53.0,53.214825
2675,53.0,53.238697
2676,53.0,53.26522
2677,53.0,53.294693
2678,53.0,53.32744
2679,54.0,53.363823
2680,53.0,53.293137
2681,54.0,53.32571
2682,57.0,53.25079
2683,49.0,52.834213
2684,54.0,53.26024
2685,54.0,53.178043
2686,55.0,53.086716
2687,54.0,52.87413
2688,48.0,52.749035
2689,53.0,53.276707
2690,54.0,53.307453
2691,54.0,53.230503
2692,53.0,53.145004
2693,53.0,53.161118
2694,54.0,53.179024
2695,58.0,53.087803
2696,53.0,52.542007
2697,53.0,52.491123
2698,51.0,52.43458
2699,48.0,52.593983
2700,53.0,53.104427
2701,52.0,53.11603
2702,53.0,53.240036
2703,58.0,53.26671
2704,48.0,52.740788
2705,54.0,53.267544
2706,53.0,53.18616
2707,53.0,53.20685
2708,53.0,53.22983
2709,53.0,53.25537
2710,53.0,53.28375
2711,53.0,53.315277
2712,54.0,53.35031
2713,53.0,53.278122
2714,55.0,53.309025
2715,52.0,53.12114
2716,55.0,53.245712
2717,51.0,53.050793
2718,50.0,53.278664
2719,57.0,53.64296
2720,53.0,53.269955
2721,53.0,53.299953
2722,54.0,53.333282
2723,54.0,53.2592
2724,54.0,53.17689
2725,54.0,53.085434
2726,53.0,52.983814
2727,53.0,52.982018
2728,53.0,52.980022
2729,53.0,52.977806
2730,55.0,52.97534
2731,49.0,52.75038
2732,53.0,53.16709
2733,54.0,53.185658
2734,53.0,53.095177
2735,53.0,53.105755
2736,53.0,53.117508
2737,52.0,53.130566
2738,53.0,53.256184
2739,54.0,53.28465
2740,57.0,53.205166
2741,55.0,52.78352
2742,52.0,52.537247
2743,49.0,52.596943
2744,53.0,52.9966
2745,55.0,52.996227
2746,53.0,52.773586
2747,52.0,52.748432
2748,50.0,52.831593
2749,53.0,53.146217
2750,53.0,53.162464
2751,53.0,53.18052
2752,55.0,53.20058
2753,49.0,53.00065
2754,54.0,53.445164
2755,54.0,53.383514
2756,53.0,53.315014
2757,54.0,53.350018
2758,54.0,53.277798
2759,53.0,53.19755
2760,53.0,53.219505
2761,54.0,53.243896
2762,53.0,53.159885
2763,52.0,53.177654
2764,53.0,53.308506
2765,53.0,53.34279
2766,53.0,53.38088
2767,53.0,53.423203
2768,57.0,53.470226
2769,51.0,53.07803
2770,53.0,53.308926
2771,53.0,53.343254
2772,54.0,53.381397
2773,53.0,53.312664
2774,54.0,53.34741
2775,54.0,53.2749
2776,57.0,53.194332
2777,53.0,52.77148
2778,49.0,52.746094
2779,53.0,53.162327
2780,54.0,53.180367
2781,53.0,53.089294
2782,54.0,53.099216
2783,54.0,52.99913
2784,54.0,52.88792
2785,54.0,52.764355
2786,53.0,52.62706
2787,51.0,52.585625
2788,49.0,52.761806
2789,53.0,53.179783
2790,53.0,53.19976
2791,53.0,53.22196
2792,53.0,53.246624
2793,54.0,53.27403
2794,54.0,53.193367
2795,53.0,53.10374
2796,52.0,53.11527
2797,53.0,53.23919
2798,53.0,53.265766
2799,54.0,53.2953
2800,53.0,53.217
2801,53.0,53.24111
2802,52.0,53.267902
2803,53.0,53.40878
2804,54.0,53.4542
2805,54.0,53.393555
2806,57.0,53.32617
2807,53.0,52.91797
2808,49.0,52.908855
2809,54.0,53.343174
2810,53.0,53.270195
2811,53.0,53.30022
2812,53.0,53.33358
2813,53.0,53.370647
2814,53.0,53.411835
2815,54.0,53.457596
2816,54.0,53.397327
2817,53.0,53.330364
2818,53.0,53.367073
2819,53.0,53.40786
2820,54.0,53.45318
2821,54.0,53.39242
2822,54.0,53.324913
2823,54.0,53.249905
2824,57.0,53.16656
2825,47.0,52.740623
2826,57.0,53.37847
2827,52.0,52.976078
2828,53.0,53.08453
2829,53.0,53.093925
2830,53.0,53.104362
2831,53.0,53.11596
2832,54.0,53.128845
2833,51.0,53.03205
2834,52.0,53.25784
2835,53.0,53.3976
2836,54.0,53.441776
2837,53.0,53.37975
2838,54.0,53.421947
2839,54.0,53.35772
2840,58.0,53.286354
2841,48.0,52.76262
2842,54.0,53.2918
2843,53.0,53.21311
2844,53.0,53.236794
2845,54.0,53.263107
2846,54.0,53.18123
2847,54.0,53.090256
2848,57.0,52.989174
2849,56.0,52.543526
2850,51.0,52.159477
2851,49.0,52.28831
2852,49.0,52.65368
2853,52.0,53.059643
2854,53.0,53.17738
2855,53.0,53.19709
2856,53.0,53.21899
2857,54.0,53.243324
2858,54.0,53.15925
2859,52.0,53.06583
2860,53.0,53.184258
2861,53.0,53.204735
2862,53.0,53.227486
2863,57.0,53.252766
2864,49.0,52.836407
2865,53.0,53.262672
2866,53.0,53.29186
2867,54.0,53.32429
2868,53.0,53.24921
2869,54.0,53.2769
2870,53.0,53.196556
2871,53.0,53.2184
2872,53.0,53.24267
2873,52.0,53.269634
2874,54.0,53.410706
2875,53.0,53.34523
2876,53.0,53.38359
2877,55.0,53.426216
2878,55.0,53.251354
2879,54.0,53.05706
2880,48.0,52.95229
2881,54.0,53.502544
2882,53.0,53.447273
2883,53.0,53.49697
2884,53.0,53.552193
2885,53.0,53.61355
2886,54.0,53.681725
2887,54.0,53.646362
2888,57.0,53.60707
2889,49.0,53.23008
2890,54.0,53.70009
2891,55.0,53.666763
2892,57.0,53.518627
2893,53.0,53.13181
2894,51.0,53.146458
2895,53.0,53.384956
2896,53.0,53.42773
2897,53.0,53.475258
2898,53.0,53.52807
2899,53.0,53.586746
2900,59.0,53.651943
2901,53.0,53.057713
2902,53.0,53.06413
2903,53.0,53.07126
2904,52.0,53.079178
2905,53.0,53.19909
2906,53.0,53.221214
2907,53.0,53.245796
2908,54.0,53.27311
2909,55.0,53.192345
2910,55.0,52.991497
2911,52.0,52.768333
2912,53.0,52.853706
2913,53.0,52.837452
2914,56.0,52.819393
2915,49.0,52.465996
2916,48.0,52.851105
2917,53.0,53.390118
2918,54.0,53.433468
2919,53.0,53.370518
2920,53.0,53.41169
2921,53.0,53.457436
2922,53.0,53.508263
2923,54.0,53.56474
2924,54.0,53.516376
2925,53.0,53.46264
2926,54.0,53.514046
2927,53.0,53.460052
2928,54.0,53.511173
2929,53.0,53.45686
2930,58.0,53.507626
2931,53.0,53.008476
2932,52.0,53.009422
2933,53.0,53.121582
2934,54.0,53.135094
2935,54.0,53.038994
2936,55.0,52.932217
2937,48.0,52.702465
2938,53.0,53.224964
2939,53.0,53.24996
2940,54.0,53.277737
2941,53.0,53.197487
2942,53.0,53.219433
2943,54.0,53.243816
2944,55.0,53.159798
2945,48.0,52.955334
2946,53.0,53.505928
2947,53.0,53.562145
2948,55.0,53.624607
2949,52.0,53.471786
2950,60.0,53.63532
2951,52.0,52.928135
2952,53.0,53.03126
2953,53.0,53.034737
2954,53.0,53.038597
2955,48.0,53.04289
2956,53.0,53.60321
2957,53.0,53.670235
2958,58.0,53.74471
2959,53.0,53.2719
2960,53.0,53.302113
2961,53.0,53.335682
2962,53.0,53.372982
2963,54.0,53.414425
2964,52.0,53.34936
2965,58.0,53.49929
2966,52.0,52.999214
2967,53.0,53.110237
2968,53.0,53.12249
2969,55.0,53.1361
2970,52.0,52.929
2971,53.0,53.032223
2972,54.0,53.035805
2973,53.0,52.928673
2974,54.0,52.92075
2975,53.0,52.80083
2976,52.0,52.7787
2977,53.0,52.865223
2978,53.0,52.85025
2979,55.0,52.833614
2980,45.0,52.592907
2981,54.0,53.436565
2982,53.0,53.373962
2983,53.0,53.415516
2984,53.0,53.461685
2985,52.0,53.512985
2986,55.0,53.681095
2987,52.0,53.534554
2988,52.0,53.70506
2989,55.0,53.894512
2990,53.0,53.771683
2991,53.0,53.857426
2992,53.0,53.952698
2993,57.0,54.058556
2994,54.0,53.731728
2995,53.0,53.70192
2996,57.0,53.77991
2997,53.0,53.422123
2998,53.0,53.46903
2999,55.0,53.521145
3000,53.0,53.35683
3001,53.0,53.39648
3002,53.0,53.440536
3003,58.0,53.489487
3004,52.0,52.98832
3005,53.0,53.098133
3006,57.0,53.10904
3007,54.0,52.676712
3008,48.0,52.52968
3009,52.0,53.032978
3010,53.0,53.147755
3011,54.0,53.164173
3012,53.0,53.071304
3013,53.0,53.079227
3014,53.0,53.08803
3015,53.0,53.097816
3016,54.0,53.10869
3017,52.0,53.009655
3018,54.0,53.12184
3019,55.0,53.02427
3020,53.0,52.804745
3021,53.0,52.78305
3022,51.0,52.758945
3023,53.0,52.954388
3024,53.0,52.94932
3025,53.0,52.943695
3026,55.0,52.937443
3027,53.0,52.70827
3028,54.0,52.675858
3029,48.0,52.528732
3030,53.0,53.03193
3031,53.0,53.03548
3032,53.0,53.039425
3033,54.0,53.043808
3034,54.0,52.937565
3035,58.0,52.819515
3036,52.0,52.243908
3037,48.0,52.271008
3038,53.0,52.745567
3039,53.0,52.7173
3040,53.0,52.68589
3041,54.0,52.65099
3042,54.0,52.5011
3043,54.0,52.334553
3044,53.0,52.1495
3045,49.0,52.055004
3046,53.0,52.394447
3047,55.0,52.327168
3048,48.0,52.030186
3049,55.0,52.477985
3050,53.0,52.19776
3051,48.0,52.108627
3052,53.0,52.565144
3053,54.0,52.51683
3054,48.0,52.35203
3055,53.0,52.835594
3056,56.0,52.81733
3057,49.0,52.463703
3058,54.0,52.84856
3059,53.0,52.720623
3060,55.0,52.689583
3061,48.0,52.432873
3062,54.0,52.925415
3063,54.0,52.806015
3064,54.0,52.67335
3065,53.0,52.525944
3066,50.0,52.473274
3067,52.0,52.748085
3068,53.0,52.831207
3069,53.0,52.812454
3070,53.0,52.79162
3071,53.0,52.768467
3072,54.0,52.742744
3073,52.0,52.60305
3074,52.0,52.670055
3075,48.0,52.744507
3076,52.0,53.271675
3077,54.0,53.41297
3078,53.0,53.347748
3079,55.0,53.386387
3080,53.0,53.207096
3081,53.0,53.23011
3082,57.0,53.25568
3083,51.0,52.839645
3084,53.0,53.044052
3085,53.0,53.04895
3086,53.0,53.05439
3087,53.0,53.060436
3088,54.0,53.067154
3089,53.0,52.963505
3090,53.0,52.959454
3091,53.0,52.954952
3092,53.0,52.94995
3093,54.0,52.944393
3094,49.0,52.827103
3095,55.0,53.252335
3096,53.0,53.05815
3097,53.0,53.064613
3098,52.0,53.071796
3099,53.0,53.190887
3100,58.0,53.2121
3101,52.0,52.680115
3102,49.0,52.755684
3103,52.0,53.17298
3104,52.0,53.303314
3105,53.0,53.448128
3106,53.0,53.49792
3107,54.0,53.55325
3108,55.0,53.50361
3109,53.0,53.337345
3110,54.0,53.37483
3111,54.0,53.305363
3112,53.0,53.22818
3113,52.0,53.253536
3114,53.0,53.39282
3115,55.0,53.436466
3116,54.0,53.26274
3117,54.0,53.180824
3118,53.0,53.089806
3119,52.0,53.099785
3120,53.0,53.221985
3121,53.0,53.24665
3122,55.0,53.27406
3123,53.0,53.08229
3124,54.0,53.09144
3125,48.0,52.990486
3126,53.0,53.544987
3127,54.0,53.60554
3128,53.0,53.561714
3129,52.0,53.62413
3130,54.0,53.80459
3131,53.0,53.782875
3132,53.0,53.869865
3133,61.0,53.96652
3134,53.0,53.185024
3135,56.0,53.205585
3136,48.0,52.8951
3137,54.0,53.439003
3138,55.0,53.37667
3139,54.0,53.196304
3140,54.0,53.107006
3141,53.0,53.007786
3142,53.0,53.00865
3143,54.0,53.009617
3144,53.0,52.899574
3145,53.0,52.888416
3146,50.0,52.876022
3147,51.0,53.195583
3148,56.0,53.43954
3149,52.0,53.15505
3150,53.0,53.283386
3151,53.0,53.314877
3152,53.0,53.349865
3153,54.0,53.38874
3154,54.0,53.320824
3155,57.0,53.245358
3156,52.0,52.828175
3157,48.0,52.920197
3158,53.0,53.46689
3159,53.0,53.51877
3160,55.0,53.576412
3161,54.0,53.418236
3162,54.0,53.353596
3163,59.0,53.281773
3164,52.0,52.64641
3165,48.0,52.718235
3166,53.0,53.242485
3167,53.0,53.26943
3168,54.0,53.299366
3169,56.0,53.22152
3170,54.0,52.912804
3171,53.0,52.792004
3172,53.0,52.768894
3173,48.0,52.743217
3174,54.0,53.270245
3175,54.0,53.18916
3176,51.0,53.099064
3177,53.0,53.3323
3178,53.0,53.369225
3179,53.0,53.41025
3180,54.0,53.455837
3181,53.0,53.395374
3182,53.0,53.43931
3183,54.0,53.48812
3184,53.0,53.431244
3185,53.0,53.47916
3186,55.0,53.532402
3187,53.0,53.36934
3188,53.0,53.410378
3189,52.0,53.45598
3190,57.0,53.617756
3191,54.0,53.24195
3192,54.0,53.157722
3193,53.0,53.064137
3194,53.0,53.071266
3195,54.0,53.079185
3196,49.0,52.97687
3197,53.0,53.418747
3198,53.0,53.46528
3199,52.0,53.51698
3200,54.0,53.68553
3201,53.0,53.65059
3202,54.0,53.722878
3203,59.0,53.692085
3204,50.0,53.102318
3205,54.0,53.44702
3206,53.0,53.38558
3207,53.0,53.42842
3208,54.0,53.476025
3209,54.0,53.417805
3210,54.0,53.353115
3211,53.0,53.28124
3212,54.0,53.31249
3213,54.0,53.2361
3214,54.0,53.151222
3215,55.0,53.05691
3216,49.0,52.841015
3217,53.0,53.267796
3218,58.0,53.297554
3219,49.0,52.775063
3220,54.0,53.194515
3221,53.0,53.105015
3222,52.0,53.116684
3223,53.0,53.24076
3224,53.0,53.267513
3225,55.0,53.29724
3226,48.0,53.108047
3227,54.0,53.67561
3228,53.0,53.639565
3229,55.0,53.71063
3230,54.0,53.567368
3231,53.0,53.5193
3232,54.0,53.577
3233,55.0,53.53
3234,51.0,53.36667
3235,53.0,53.629635
3236,55.0,53.699596
3237,54.0,53.555107
3238,53.0,53.505676
3239,58.0,53.561867
3240,53.0,53.068745
3241,54.0,53.076385
3242,53.0,52.973763
3243,53.0,52.970848
3244,53.0,52.967613
3245,60.0,52.964016
3246,49.0,52.182243
3247,52.0,52.535824
3248,53.0,52.59536
3249,53.0,52.550404
3250,53.0,52.50045
3251,54.0,52.444946
3252,53.0,52.272163
3253,53.0,52.191296
3254,54.0,52.10144
3255,53.0,51.890488
3256,49.0,51.767212
3257,48.0,52.07468
3258,50.0,52.527424
3259,54.0,52.80825
3260,53.0,52.675835
3261,53.0,52.63982
3262,52.0,52.599804
3263,53.0,52.66645
3264,53.0,52.62939
3265,54.0,52.588215
3266,54.0,52.43135
3267,52.0,52.257057
3268,52.0,52.285618
3269,53.0,52.317352
3270,52.0,52.241505
3271,53.0,52.268337
3272,54.0,52.187042
3273,54.0,51.985603
3274,48.0,51.76178
3275,54.0,52.179756
3276,51.0,51.977505
3277,44.0,52.08612
3278,52.0,52.984577
3279,53.0,53.093975
3280,53.0,53.10442
3281,53.0,53.116024
3282,53.0,53.128918
3283,54.0,53.143246
3284,53.0,53.04805
3285,53.0,53.05339
3286,54.0,53.059326
3287,53.0,52.954807
3288,52.0,52.949787
3289,53.0,53.05532
3290,53.0,53.06147
3291,50.0,53.068302
3292,53.0,53.409225
3293,53.0,53.454697
3294,54.0,53.505222
3295,53.0,53.450245
3296,53.0,53.500275
3297,52.0,53.555862
3298,53.0,53.728737
3299,53.0,53.80971
3300,53.0,53.89968
3301,54.0,53.99965
3302,53.0,53.99961
3303,53.0,54.11068
3304,57.0,54.23409
3305,53.0,53.926765
3306,59.0,54.029743
3307,52.0,53.477493
3308,54.0,53.64166
3309,53.0,53.60184
3310,54.0,53.668713
3311,53.0,53.631905
3312,53.0,53.702118
3313,53.0,53.780132
3314,53.0,53.866817
3315,57.0,53.963135
3316,51.0,53.625706
3317,54.0,53.917454
3318,54.0,53.908283
3319,57.0,53.89809
3320,53.0,53.553432
3321,53.0,53.61493
3322,54.0,53.683258
3323,52.0,53.648064
3324,57.0,53.83118
3325,57.0,53.47909
3326,54.0,53.08788
3327,54.0,52.98653
3328,53.0,52.87392
3329,53.0,52.859913
3330,53.0,52.84435
3331,53.0,52.827057
3332,53.0,52.807842
3333,59.0,52.786495
3334,49.0,52.096104
3335,51.0,52.440113
3336,53.0,52.60013
3337,48.0,52.555702
3338,53.0,53.061893
3339,54.0,53.06877
3340,53.0,52.9653
3341,53.0,52.96145
3342,58.0,52.95717
3343,52.0,52.39686
3344,48.0,52.440952
3345,53.0,52.934395
3346,53.0,52.92711
3347,53.0,52.919014
3348,53.0,52.91002
3349,49.0,52.900024
3350,53.0,53.33336
3351,54.0,53.3704
3352,54.0,53.30044
3353,53.0,53.222713
3354,52.0,53.247463
3355,58.0,53.38607
3356,54.0,52.873413
3357,53.0,52.748238
3358,48.0,52.720264
3359,53.0,53.24474
3360,53.0,53.271935
3361,55.0,53.30215
3362,48.0,53.113503
3363,54.0,53.68167
3364,55.0,53.6463
3365,53.0,53.49589
3366,57.0,53.55099
3367,53.0,53.16777
3368,53.0,53.186413
3369,53.0,53.207127
3370,55.0,53.230145
3371,53.0,53.033497
3372,54.0,53.03722
3373,53.0,52.930244
3374,53.0,52.922497
3375,54.0,52.913887
3376,51.0,52.79321
3377,51.0,52.99246
3378,52.0,53.213844
3379,53.0,53.348717
3380,54.0,53.387466
3381,53.0,53.31941
3382,53.0,53.3549
3383,53.0,53.394337
3384,53.0,53.438152
3385,53.0,53.48684
3386,53.0,53.540936
3387,58.0,53.601044
3388,49.0,53.112274
3389,53.0,53.569195
3390,53.0,53.632442
3391,53.0,53.702717
3392,53.0,53.7808
3393,53.0,53.867558
3394,54.0,53.963955
3395,54.0,53.95995
3396,58.0,53.955498
3397,53.0,53.50611
3398,54.0,53.562347
3399,53.0,53.513718
3400,55.0,53.5708
3401,55.0,53.412003
3402,53.0,53.23556
3403,58.0,53.261738
3404,48.0,52.735268
3405,54.0,53.26141
3406,53.0,53.179344
3407,53.0,53.199272
3408,52.0,53.221416
3409,53.0,53.35713
3410,53.0,53.396812
3411,54.0,53.440907
3412,53.0,53.378784
3413,53.0,53.42087
3414,53.0,53.467636
3415,55.0,53.5196
3416,51.0,53.355114
3417,54.0,53.6168
3418,55.0,53.57422
3419,53.0,53.415802
3420,54.0,53.462006
3421,55.0,53.40223
3422,53.0,53.2247
3423,52.0,53.24967
3424,52.0,53.38852
3425,53.0,53.5428
3426,53.0,53.603115
3427,54.0,53.67013
3428,53.0,53.63348
3429,58.0,53.70387
3430,52.0,53.226524
3431,53.0,53.362804
3432,54.0,53.40312
3433,55.0,53.336796
3434,49.0,53.151997
3435,54.0,53.61333
3436,54.0,53.570366
3437,57.0,53.52263
3438,54.0,53.136253
3439,52.0,53.04028
3440,53.0,53.15587
3441,53.0,53.17319
3442,53.0,53.192436
3443,53.0,53.21382
3444,52.0,53.237583
3445,58.0,53.37509
3446,49.0,52.861214
3447,53.0,53.290237
3448,54.0,53.322487
3449,53.0,53.247208
3450,53.0,53.274677
3451,54.0,53.3052
3452,53.0,53.227997
3453,53.0,53.253334
3454,54.0,53.281483
3455,54.0,53.20165
3456,53.0,53.11294
3457,54.0,53.125492
3458,53.0,53.028324
3459,54.0,53.031475
3460,58.0,52.923862
3461,51.0,52.359848
3462,53.0,52.510944
3463,53.0,52.456608
3464,53.0,52.396233
3465,53.0,52.32915
3466,53.0,52.254616
3467,55.0,52.1718
3468,49.0,51.857555
3469,48.0,52.17506
3470,52.0,52.638958
3471,48.0,52.709953
3472,53.0,53.233284
3473,54.0,53.25921
3474,53.0,53.1769
3475,53.0,53.196556
3476,54.0,53.2184
3477,53.0,53.131554
3478,54.0,53.14617
3479,54.0,53.0513
3480,53.0,52.94589
3481,53.0,52.939877
3482,54.0,52.933197
3483,53.0,52.814663
3484,54.0,52.79407
3485,53.0,52.66008
3486,49.0,52.622314
3487,52.0,53.024796
3488,53.0,53.138664
3489,53.0,53.154076
3490,54.0,53.171196
3491,53.0,53.079105
3492,49.0,53.0879
3493,54.0,53.54211
3494,52.0,53.491234
3495,54.0,53.65693
3496,53.0,53.61881
3497,53.0,53.68757
3498,53.0,53.763966
3499,54.0,53.848854
3500,55.0,53.832058
3501,54.0,53.70229
3502,59.0,53.669212
3503,54.0,53.0769
3504,50.0,52.974335
3505,54.0,53.304817
3506,54.0,53.227573
3507,54.0,53.141747
3508,50.0,53.046383
3509,57.0,53.384872
3510,54.0,52.983192
3511,54.0,52.870213
3512,53.0,52.744682
3513,53.0,52.716316
3514,49.0,52.6848
3515,53.0,53.09422
3516,55.0,53.10469
3517,53.0,52.8941
3518,53.0,52.882336
3519,53.0,52.869263
3520,53.0,52.85474
3521,53.0,52.838604
3522,54.0,52.820675
3523,53.0,52.68964
3524,55.0,52.65516
3525,49.0,52.394623
3526,53.0,52.7718
3527,57.0,52.74645
3528,49.0,52.273834
3529,49.0,52.637592
3530,54.0,53.041767
3531,54.0,52.935295
3532,57.0,52.816994
3533,48.0,52.352215
3534,52.0,52.835796
3535,49.0,52.928665
3536,53.0,53.365185
3537,54.0,53.40576
3538,54.0,53.339733
3539,53.0,53.26637
3540,52.0,53.295967
3541,54.0,53.439964
3542,53.0,53.37774
3543,54.0,53.419712
3544,53.0,53.355236
3545,58.0,53.39471
3546,55.0,52.883015
3547,49.0,52.647797
3548,54.0,53.05311
3549,55.0,52.9479
3550,52.0,52.71989
3551,49.0,52.79988
3552,53.0,53.22209
3553,54.0,53.24677
3554,53.0,53.16308
3555,53.0,53.181202
3556,50.0,53.201336
3557,55.0,53.55704
3558,53.0,53.396713
3559,54.0,53.440796
3560,53.0,53.378662
3561,54.0,53.42074
3562,59.0,53.356377
3563,49.0,52.72931
3564,53.0,53.143677
3565,54.0,53.15964
3566,53.0,53.06627
3567,53.0,53.073635
3568,53.0,53.081818
3569,52.0,53.09091
3570,54.0,53.212124
3571,53.0,53.12458
3572,53.0,53.138424
3573,53.0,53.153805
3574,54.0,53.170895
3575,52.0,53.07877
3576,53.0,53.198635
3577,53.0,53.220707
3578,55.0,53.24523
3579,49.0,53.05026
3580,53.0,53.500286
3581,58.0,53.555874
3582,53.0,53.062084
3583,53.0,53.068985
3584,52.0,53.076653
3585,53.0,53.19628
3586,55.0,53.218094
3587,57.0,53.020107
3588,48.0,52.577896
3589,53.0,53.086555
3590,53.0,53.096176
3591,53.0,53.106865
3592,53.0,53.11874
3593,53.0,53.131935
3594,55.0,53.1466
3595,54.0,52.940666
3596,53.0,52.822964
3597,51.0,52.803295
3598,53.0,53.003666
3599,54.0,53.004074
3600,51.0,52.893417
3601,54.0,53.1038
3602,53.0,53.004223
3603,57.0,53.004696
3604,53.0,52.560772
3605,48.0,52.51197
3606,54.0,53.0133
3607,54.0,52.903667
3608,53.0,52.781853
3609,53.0,52.757618
3610,54.0,52.73069
3611,54.0,52.589657
3612,48.0,52.432953
3613,54.0,52.925507
3614,55.0,52.806118
3615,48.0,52.562355
3616,54.0,53.069286
3617,52.0,52.965874
3618,53.0,53.073193
3619,53.0,53.08133
3620,53.0,53.09037
3621,55.0,53.100414
3622,54.0,52.88935
3623,55.0,52.765945
3624,48.0,52.51772
3625,52.0,53.01969
3626,53.0,53.13299
3627,51.0,53.14777
3628,54.0,53.386414
3629,54.0,53.318237
3630,53.0,53.242485
3631,54.0,53.269432
3632,57.0,53.18826
3633,53.0,52.764732
3634,54.0,52.738594
3635,53.0,52.59844
3636,53.0,52.55382
3637,49.0,52.50425
3638,54.0,52.893612
3639,53.0,52.77068
3640,53.0,52.7452
3641,51.0,52.716892
3642,53.0,52.90766
3643,53.0,52.897404
3644,54.0,52.886005
3645,49.0,52.76223
3646,53.0,53.180256
3647,52.0,53.200287
3648,54.0,53.333652
3649,53.0,53.259613
3650,54.0,53.28846
3651,53.0,53.2094
3652,52.0,53.23267
3653,53.0,53.369633
3654,58.0,53.410706
3655,52.0,52.900787
3656,50.0,53.000874
3657,52.0,53.334305
3658,53.0,53.482563
3659,57.0,53.536182
3660,50.0,53.151314
3661,54.0,53.50146
3662,53.0,53.446068
3663,54.0,53.495632
3664,53.0,53.43959
3665,57.0,53.488438
3666,51.0,53.098267
3667,52.0,53.33141
3668,54.0,53.479343
3669,53.0,53.421494
3670,54.0,53.468327
3671,58.0,53.409252
3672,52.0,52.89917
3673,48.0,52.999077
3674,53.0,53.55453
3675,54.0,53.616146
3676,54.0,53.573494
3677,53.0,53.526104
3678,54.0,53.58456
3679,54.0,53.5384
3680,55.0,53.48711
3681,53.0,53.31901
3682,53.0,53.35446
3683,55.0,53.39385
3684,57.0,53.21539
3685,53.0,52.794876
3686,48.0,52.772087
3687,57.0,53.302322
3688,50.0,52.891468
3689,53.0,53.21274
3690,53.0,53.23638
3691,54.0,53.26265
3692,53.0,53.18072
3693,53.0,53.200806
3694,53.0,53.223118
3695,53.0,53.24791
3696,52.0,53.27546
3697,53.0,53.41718
3698,55.0,53.463535
3699,54.0,53.29282
3700,54.0,53.214245
3701,55.0,53.126938
3702,52.0,52.918823
3703,54.0,53.020916
3704,48.0,52.91213
3705,53.0,53.457924
3706,54.0,53.50881
3707,53.0,53.45423
3708,52.0,53.504704
3709,53.0,53.671894
3710,54.0,53.74655
3711,54.0,53.71839
3712,54.0,53.687103
3713,54.0,53.652336
3714,58.0,53.613705
3715,52.0,53.126343
3716,53.0,53.25149
3717,54.0,53.279438
3718,55.0,53.199375
3719,50.0,52.999306
3720,54.0,53.332565
3721,53.0,53.258404
3722,53.0,53.287117
3723,54.0,53.31902
3724,55.0,53.243355
3725,54.0,53.048172
3726,54.0,52.942413
3727,54.0,52.824905
3728,53.0,52.69434
3729,59.0,52.66038
3730,48.0,51.95598
3731,52.0,52.395535
3732,50.0,52.439484
3733,50.0,52.710537
3734,54.0,53.011707
3735,53.0,52.901897
3736,53.0,52.891
3737,52.0,52.87889
3738,53.0,52.976547
3739,49.0,52.97394
3740,54.0,53.41549
3741,54.0,53.350544
3742,57.0,53.27838
3743,52.0,52.86487
3744,53.0,52.960964
3745,52.0,52.95663
3746,52.0,53.062923
3747,49.0,53.181026
3748,54.0,53.645584
3749,54.0,53.606205
3750,54.0,53.56245
3751,54.0,53.513832
3752,52.0,53.459812
3753,53.0,53.622013
3754,54.0,53.691128
3755,53.0,53.656807
3756,54.0,53.72979
3757,59.0,53.699768
3758,53.0,53.11085
3759,53.0,53.12317
3760,53.0,53.136856
3761,54.0,53.152065
3762,50.0,53.05785
3763,54.0,53.397614
3764,54.0,53.33068
3765,54.0,53.256313
3766,53.0,53.173683
3767,57.0,53.19298
3768,53.0,52.76998
3769,54.0,52.744427
3770,51.0,52.60492
3771,54.0,52.78325
3772,53.0,52.648056
3773,52.0,52.608955
3774,53.0,52.676617
3775,52.0,52.640686
3776,52.0,52.711876
3777,54.0,52.790974
3778,49.0,52.65664
3779,54.0,53.06293
3780,55.0,52.958813
3781,49.0,52.732014
3782,53.0,53.146683
3783,52.0,53.162983
3784,54.0,53.292206
3785,50.0,53.213562
3786,54.0,53.570625
3787,54.0,53.522915
3788,58.0,53.469906
3789,55.0,52.966564
3790,49.0,52.740627
3791,52.0,53.156254
3792,53.0,53.28473
3793,53.0,53.31637
3794,53.0,53.351524
3795,54.0,53.390587
3796,52.0,53.322872
3797,53.0,53.46986
3798,59.0,53.522068
3799,49.0,52.91341
3800,55.0,53.348232
3801,53.0,53.164703
3802,53.0,53.183006
3803,53.0,53.203342
3804,54.0,53.225937
3805,53.0,53.13993
3806,54.0,53.15548
3807,53.0,53.06164
3808,53.0,53.068493
3809,53.0,53.076107
3810,55.0,53.084564
3811,49.0,52.87174
3812,54.0,53.30193
3813,53.0,53.224365
3814,55.0,53.2493
3815,49.0,53.054775
3816,54.0,53.505306
3817,54.0,53.45034
3818,53.0,53.389267
3819,54.0,53.43252
3820,53.0,53.36947
3821,55.0,53.410522
3822,59.0,53.233917
3823,55.0,52.593243
3824,51.0,52.32583
3825,48.0,52.473145
3826,56.0,52.97016
3827,49.0,52.633514
3828,54.0,53.03724
3829,53.0,52.930264
3830,53.0,52.922516
3831,49.0,52.91391
3832,54.0,53.34879
3833,54.0,53.276432
3834,53.0,53.196037
3835,53.0,53.217823
3836,53.0,53.242027
3837,53.0,53.26892
3838,53.0,53.2988
3839,54.0,53.332005
3840,53.0,53.257782
3841,54.0,53.286427
3842,55.0,53.20714
3843,52.0,53.00794
3844,53.0,53.11993
3845,54.0,53.13326
3846,55.0,53.036953
3847,50.0,52.81884
3848,53.0,53.132046
3849,53.0,53.14672
3850,53.0,53.163025
3851,53.0,53.18114
3852,53.0,53.20127
3853,54.0,53.223637
3854,55.0,53.137375
3855,52.0,52.930416
3856,52.0,53.0338
3857,53.0,53.148666
3858,54.0,53.165188
3859,52.0,53.07243
3860,52.0,53.19159
3861,54.0,53.32399
3862,53.0,53.24888
3863,53.0,53.276535
3864,54.0,53.307262
3865,53.0,53.23029
3866,55.0,53.25588
3867,57.0,53.062088
3868,53.0,52.624542
3869,52.0,52.58283
3870,48.0,52.647587
3871,53.0,53.163986
3872,54.0,53.18221
3873,53.0,53.091343
3874,53.0,53.101494
3875,57.0,53.112774
3876,49.0,52.680862
3877,53.0,53.089848
3878,53.0,53.099834
3879,52.0,53.110928
3880,54.0,53.234364
3881,53.0,53.149292
3882,53.0,53.165882
3883,54.0,53.184315
3884,55.0,53.09368
3885,52.0,52.88187
3886,52.0,52.979855
3887,53.0,53.08873
3888,53.0,53.09859
3889,53.0,53.109547
3890,53.0,53.12172
3891,57.0,53.135246
3892,48.0,52.70583
3893,54.0,53.228703
3894,52.0,53.143
3895,53.0,53.270004
3896,53.0,53.300007
3897,54.0,53.333344
3898,53.0,53.25927
3899,54.0,53.28808
3900,53.0,53.208977
3901,54.0,53.232197
3902,53.0,53.146885
3903,53.0,53.163208
3904,53.0,53.181343
3905,53.0,53.201496
3906,53.0,53.22389
3907,54.0,53.248768
3908,53.0,53.1653
3909,53.0,53.183666
3910,53.0,53.204075
3911,55.0,53.226753
3912,57.0,53.029728
3913,54.0,52.58859
3914,55.0,52.431767
3915,49.0,52.146408
3916,48.0,52.49601
3917,53.0,52.995567
3918,53.0,52.99508
3919,52.0,52.994534
3920,53.0,53.105038
3921,53.0,53.11671
3922,53.0,53.12968
3923,53.0,53.144093
3924,55.0,53.160107
3925,50.0,52.955677
3926,54.0,53.28409
3927,53.0,53.20454
3928,53.0,53.22727
3929,54.0,53.25252
3930,53.0,53.169468
3931,53.0,53.1883
3932,54.0,53.209225
3933,53.0,53.12136
3934,53.0,53.13485
3935,53.0,53.149834
3936,53.0,53.166485
3937,53.0,53.184986
3938,53.0,53.205544
3939,53.0,53.228386
3940,57.0,53.253765
3941,49.0,52.837517
3942,53.0,53.26391
3943,54.0,53.293236
3944,57.0,53.214706
3945,52.0,52.79412
3946,48.0,52.88236
3947,53.0,53.424847
3948,53.0,53.472054
3949,53.0,53.524506
3950,54.0,53.582787
3951,54.0,53.53643
3952,53.0,53.484924
3953,53.0,53.538807
3954,54.0,53.59868
3955,54.0,53.55409
3956,59.0,53.504543
3957,55.0,52.893936
3958,51.0,52.65993
3959,52.0,52.84437
3960,48.0,52.93819
3961,54.0,53.48688
3962,53.0,53.429867
3963,54.0,53.47763
3964,54.0,53.41959
3965,54.0,53.3551
3966,53.0,53.283443
3967,54.0,53.314938
3968,53.0,53.23882
3969,53.0,53.265358
3970,53.0,53.294846
3971,53.0,53.32761
3972,54.0,53.364014
3973,57.0,53.293346
3974,55.0,52.881496
3975,51.0,52.646107
3976,48.0,52.82901
3977,53.0,53.36557
3978,54.0,53.406193
3979,54.0,53.340214
3980,54.0,53.266903
3981,54.0,53.185448
3982,53.0,53.09494
3983,53.0,53.10549
3984,53.0,53.117214
3985,53.0,53.13024
3986,54.0,53.144714
3987,53.0,53.049683
3988,54.0,53.055206
3989,55.0,52.95023
3990,49.0,52.72248
3991,53.0,53.13609
3992,53.0,53.151215
3993,53.0,53.16802
3994,54.0,53.18669
3995,53.0,53.096325
3996,53.0,53.10703
3997,53.0,53.118923
3998,53.0,53.13214
3999,53.0,53.146824
4000,54.0,53.16314
4001,58.0,53.070156
4002,55.0,52.522396
4003,53.0,52.24711
4004,53.0,52.163456
4005,50.0,52.070507
4006,43.0,52.300564
4007,53.0,53.33396
4008,54.0,53.37107
4009,53.0,53.30119
4010,53.0,53.334656
4011,54.0,53.37184
4012,53.0,53.302048
4013,54.0,53.33561
4014,53.0,53.261787
4015,53.0,53.29088
4016,53.0,53.3232
4017,53.0,53.35911
4018,53.0,53.399017
4019,54.0,53.443356
4020,53.0,53.381504
4021,58.0,53.423897
4022,50.0,52.915443
4023,53.0,53.239384
4024,54.0,53.265984
4025,53.0,53.184425
4026,53.0,53.204918
4027,53.0,53.227688
4028,53.0,53.252987
4029,53.0,53.281097
4030,54.0,53.312332
4031,53.0,53.235924
4032,53.0,53.26214
4033,54.0,53.291267
4034,57.0,53.21252
4035,52.0,52.79169
4036,49.0,52.879658
4037,58.0,53.31073
4038,50.0,52.789703
4039,52.0,53.09967
4040,54.0,53.221855
4041,53.0,53.135395
4042,53.0,53.15044
4043,53.0,53.16716
4044,53.0,53.185734
4045,53.0,53.20637
4046,56.0,53.229305
4047,55.0,52.921455
4048,52.0,52.690506
4049,50.0,52.76723
4050,52.0,53.074703
4051,54.0,53.194115
4052,54.0,53.104572
4053,57.0,53.00508
4054,51.0,52.561203
4055,48.0,52.734673
4056,53.0,53.26075
4057,53.0,53.289722
4058,53.0,53.321915
4059,53.0,53.357685
4060,54.0,53.39743
4061,53.0,53.33048
4062,53.0,53.3672
4063,53.0,53.408
4064,58.0,53.45334
4065,53.0,52.94816
4066,48.0,52.9424
4067,53.0,53.491558
4068,54.0,53.546177
4069,57.0,53.49575
4070,53.0,53.10639
4071,52.0,53.118214
4072,53.0,53.24246
4073,53.0,53.2694
4074,53.0,53.29934
4075,53.0,53.332603
4076,53.0,53.36956
4077,53.0,53.410625
4078,53.0,53.456253
4079,54.0,53.50695
4080,54.0,53.452168
4081,53.0,53.391296
4082,54.0,53.434776
4083,53.0,53.371975
4084,53.0,53.413307
4085,57.0,53.459232
4086,50.0,53.065815
4087,53.0,53.406464
4088,54.0,53.45163
4089,53.0,53.390697
4090,55.0,53.43411
4091,58.0,53.260124
4092,53.0,52.733475
4093,52.0,52.70386
4094,53.0,52.78207
4095,52.0,52.75786
4096,49.0,52.842064
4097,54.0,53.26896
4098,54.0,53.187733
4099,53.0,53.09748
4100,53.0,53.108315
4101,57.0,53.120354
4102,49.0,52.68928
4103,55.0,53.0992
4104,50.0,52.888004
4105,53.0,53.208897
4106,53.0,53.23211
4107,53.0,53.2579
4108,53.0,53.28656
4109,54.0,53.3184
4110,53.0,53.24267
4111,54.0,53.269634
4112,53.0,53.18848
4113,54.0,53.209427
4114,53.0,53.121586
4115,54.0,53.135098
4116,53.0,53.038998
4117,55.0,53.043335
4118,49.0,52.825928
4119,57.0,53.25103
4120,48.0,52.834476
4121,53.0,53.371643
4122,54.0,53.41294
4123,54.0,53.347713
4124,57.0,53.275238
4125,53.0,52.861378
4126,52.0,52.845978
4127,52.0,52.939976
4128,53.0,53.04442
4129,53.0,53.049355
4130,53.0,53.05484
4131,54.0,53.060936
4132,53.0,52.956596
4133,55.0,52.951775
4134,49.0,52.724194
4135,57.0,53.137993
4136,54.0,52.70888
4137,52.0,52.565422
4138,52.0,52.628246
4139,49.0,52.69805
4140,53.0,53.108944
4141,53.0,53.12105
4142,54.0,53.134506
4143,53.0,53.03834
4144,53.0,53.042603
4145,53.0,53.047337
4146,53.0,53.052597
4147,53.0,53.058445
4148,54.0,53.06494
4149,53.0,52.961044
4150,49.0,52.95672
4151,54.0,53.396355
4152,53.0,53.329285
4153,53.0,53.365875
4154,58.0,53.40653
4155,53.0,52.896145
4156,50.0,52.88461
4157,52.0,53.205124
4158,54.0,53.339027
4159,53.0,53.265587
4160,53.0,53.295097
4161,53.0,53.32789
4162,54.0,53.364323
4163,53.0,53.293694
4164,53.0,53.32633
4165,55.0,53.36259
4166,54.0,53.180656
4167,54.0,53.08962
4168,55.0,52.988464
4169,49.0,52.76496
4170,53.0,53.18329
4171,53.0,53.203655
4172,53.0,53.226288
4173,54.0,53.251434
4174,53.0,53.16826
4175,53.0,53.186954
4176,54.0,53.20773
4177,53.0,53.119698
4178,54.0,53.133
4179,54.0,53.036667
4180,55.0,52.92963
4181,55.0,52.69959
4182,52.0,52.44399
4183,51.0,52.49332
4184,56.0,52.65925
4185,49.0,52.288055
4186,52.0,52.653397
4187,49.0,52.725998
4188,53.0,53.139996
4189,54.0,53.155552
4190,53.0,53.061726
4191,53.0,53.06859
4192,53.0,53.07621
4193,53.0,53.08468
4194,52.0,53.09409
4195,54.0,53.215656
4196,53.0,53.128506
4197,53.0,53.142788
4198,52.0,53.158657
4199,53.0,53.2874
4200,56.0,53.319336
4201,52.0,53.02149
4202,53.0,53.134987
4203,54.0,53.149986
4204,54.0,53.05554
4205,54.0,52.950596
4206,53.0,52.833996
4207,53.0,52.81555
4208,53.0,52.79506
4209,53.0,52.77229
4210,52.0,52.74699
4211,53.0,52.82999
4212,53.0,52.811104
4213,53.0,52.79012
4214,52.0,52.7668
4215,55.0,52.852
4216,52.0,52.613335
4217,50.0,52.681484
4218,50.0,52.979427
4219,53.0,53.310474
4220,53.0,53.344975
4221,55.0,53.38331
4222,54.0,53.20368
4223,53.0,53.115196
4224,54.0,53.128
4225,57.0,53.03111
4226,53.0,52.590122
4227,52.0,52.544582
4228,49.0,52.60509
4229,50.0,53.005657
4230,54.0,53.33962
4231,53.0,53.266243
4232,54.0,53.29583
4233,58.0,53.21759
4234,48.0,52.686214
4235,54.0,53.20691
4236,53.0,53.118786
4237,53.0,53.13199
4238,52.0,53.146656
4239,53.0,53.274063
4240,53.0,53.304516
4241,53.0,53.338352
4242,53.0,53.37595
4243,54.0,53.417725
4244,54.0,53.353027
4245,55.0,53.281143
4246,53.0,53.09016
4247,49.0,53.10018
4248,54.0,53.555756
4249,57.0,53.506393
4250,52.0,53.118214
4251,54.0,53.24246
4252,53.0,53.158287
4253,53.0,53.175877
4254,53.0,53.19542
4255,53.0,53.217136
4256,53.0,53.241264
4257,54.0,53.268074
4258,53.0,53.18675
4259,53.0,53.2075
4260,54.0,53.230556
4261,53.0,53.14506
4262,53.0,53.161182
4263,53.0,53.179092
4264,53.0,53.198994
4265,54.0,53.221107
4266,52.0,53.134563
4267,54.0,53.260628
4268,53.0,53.178474
4269,53.0,53.198307
4270,57.0,53.220345
4271,55.0,52.800385
4272,52.0,52.555984
4273,48.0,52.61776
4274,54.0,53.130848
4275,55.0,53.034275
4276,54.0,52.81586
4277,49.0,52.684288
4278,53.0,53.093655
4279,53.0,53.10406
4280,58.0,53.115627
4281,48.0,52.57292
4282,53.0,53.081028
4283,53.0,53.090034
4284,53.0,53.10004
4285,54.0,53.111156
4286,53.0,53.012394
4287,53.0,53.013775
4288,53.0,53.01531
4289,53.0,53.01701
4290,54.0,53.0189
4291,54.0,52.90989
4292,50.0,52.788765
4293,53.0,53.09863
4294,54.0,53.10959
4295,54.0,53.010654
4296,51.0,52.900726
4297,54.0,53.11192
4298,55.0,53.013245
4299,49.0,52.792496
4300,58.0,53.213882
4301,53.0,52.682095
4302,50.0,52.646774
4303,50.0,52.94086
4304,54.0,53.267624
4305,53.0,53.18625
4306,55.0,53.206947
4307,52.0,53.00772
4308,53.0,53.11969
4309,54.0,53.13299
4310,53.0,53.036655
4311,53.0,53.04073
4312,52.0,53.045258
4313,52.0,53.161396
4314,54.0,53.29044
4315,58.0,53.211597
4316,49.0,52.679554
4317,54.0,53.088394
4318,55.0,52.987103
4319,53.0,52.763447
4320,48.0,52.737164
4321,58.0,53.263515
4322,48.0,52.737244
4323,53.0,53.263607
4324,53.0,53.2929
4325,53.0,53.325447
4326,54.0,53.36161
4327,53.0,53.290676
4328,53.0,53.322975
4329,54.0,53.358864
4330,53.0,53.287624
4331,58.0,53.319584
4332,48.0,52.79954
4333,53.0,53.332825
4334,54.0,53.36981
4335,57.0,53.299786
4336,53.0,52.888653
4337,53.0,52.87628
4338,49.0,52.862537
4339,53.0,53.291706
4340,53.0,53.32412
4341,53.0,53.360134
4342,53.0,53.40015
4343,54.0,53.444614
4344,53.0,53.382904
4345,53.0,53.425453
4346,54.0,53.47273
4347,55.0,53.414143
4348,56.0,53.237938
4349,54.0,52.931046
4350,49.0,52.81227
4351,53.0,53.235855
4352,53.0,53.262062
4353,54.0,53.291183
4354,55.0,53.212425
4355,50.0,53.01381
4356,54.0,53.34868
4357,53.0,53.27631
4358,54.0,53.307014
4359,54.0,53.230015
4360,54.0,53.14446
4361,53.0,53.049397
4362,53.0,53.054886
4363,55.0,53.060986
4364,49.0,52.84554
4365,54.0,53.27282
4366,53.0,53.19202
4367,54.0,53.21336
4368,54.0,53.125954
4369,53.0,53.028835
4370,57.0,53.032043
4371,49.0,52.59116
4372,53.0,52.990177
4373,53.0,52.98909
4374,53.0,52.98788
4375,53.0,52.986538
4376,54.0,52.985046
4377,54.0,52.872272
4378,57.0,52.74697
4379,50.0,52.274414
4380,50.0,52.527126
4381,53.0,52.80792
4382,52.0,52.78658
4383,49.0,52.873978
4384,53.0,53.30442
4385,54.0,53.33825
4386,56.0,53.26472
4387,52.0,52.960804
4388,53.0,53.067562
4389,54.0,53.07507
4390,53.0,52.972298
4391,53.0,52.969223
4392,54.0,52.965805
4393,53.0,52.850895
4394,54.0,52.83433
4395,53.0,52.70481
4396,50.0,52.672016
4397,53.0,52.968906
4398,53.0,52.965454
4399,53.0,52.961617
4400,53.0,52.957355
4401,53.0,52.952618
4402,53.0,52.947353
4403,52.0,52.941505
4404,53.0,53.04612
4405,54.0,53.051247
4406,53.0,52.94583
4407,53.0,52.939816
4408,57.0,52.933132
4409,53.0,52.48126
4410,49.0,52.423622
4411,52.0,52.804024
4412,50.0,52.89336
4413,53.0,53.214848
4414,53.0,53.23872
4415,53.0,53.265247
4416,54.0,53.294724
4417,53.0,53.21636
4418,53.0,53.2404
4419,55.0,53.267113
4420,49.0,53.07457
4421,54.0,53.527298
4422,55.0,53.474777
4423,54.0,53.30531
4424,57.0,53.228123
4425,57.0,52.809025
4426,53.0,52.34336
4427,50.0,52.270405
4428,48.0,52.522675
4429,53.0,53.025196
4430,53.0,53.027996
4431,53.0,53.03111
4432,53.0,53.03457
4433,53.0,53.038414
4434,53.0,53.042683
4435,57.0,53.04743
4436,48.0,52.608253
4437,53.0,53.120285
4438,57.0,53.13365
4439,53.0,52.70406
4440,48.0,52.67118
4441,52.0,53.190205
4442,54.0,53.32245
4443,52.0,53.247166
4444,53.0,53.38574
4445,53.0,53.4286
4446,54.0,53.476223
4447,53.0,53.418026
4448,53.0,53.464478
4449,54.0,53.516087
4450,54.0,53.46232
4451,54.0,53.402576
4452,53.0,53.336197
4453,54.0,53.373554
4454,53.0,53.303947
4455,53.0,53.337723
4456,53.0,53.37525
4457,53.0,53.41695
4458,55.0,53.46328
4459,53.0,53.292534
4460,53.0,53.32504
4461,54.0,53.361156
4462,54.0,53.290173
4463,54.0,53.211304
4464,53.0,53.123672
4465,53.0,53.137417
4466,53.0,53.152687
4467,53.0,53.169655
4468,58.0,53.188507
4469,56.0,52.6539
4470,51.0,52.282116
4471,52.0,52.424576
4472,50.0,52.471752
4473,49.0,52.74639
4474,54.0,53.16266
4475,52.0,53.069622
4476,53.0,53.18847
4477,53.0,53.20941
4478,53.0,53.23268
4479,54.0,53.258537
4480,53.0,53.17615
4481,53.0,53.195724
4482,54.0,53.217476
4483,53.0,53.130527
4484,55.0,53.14503
4485,48.0,52.938923
4486,54.0,53.487694
4487,53.0,53.43077
4488,53.0,53.478638
4489,54.0,53.531822
4490,54.0,53.4798
4491,52.0,53.422
4492,53.0,53.58
4493,54.0,53.644447
4494,54.0,53.604942
4495,53.0,53.561047
4496,54.0,53.623386
4497,54.0,53.58154
4498,56.0,53.53504
4499,55.0,53.26116
4500,55.0,53.06796
4501,50.0,52.85329
4502,53.0,53.170322
4503,53.0,53.18925
4504,53.0,53.21028
4505,53.0,53.233646
4506,55.0,53.25961
4507,52.0,53.066235
4508,53.0,53.184704
4509,53.0,53.205227
4510,53.0,53.22803
4511,53.0,53.25337
4512,53.0,53.28152
4513,54.0,53.3128
4514,57.0,53.236446
4515,53.0,52.818275
4516,53.0,52.798084
4517,49.0,52.77565
4518,53.0,53.195168
4519,53.0,53.216854
4520,53.0,53.24095
4521,54.0,53.267727
4522,56.0,53.186363
4523,51.0,52.87374
4524,53.0,53.08194
4525,53.0,53.091045
4526,54.0,53.101166
4527,53.0,53.001297
4528,54.0,53.001442
4529,55.0,52.89049
4530,51.0,52.6561
4531,52.0,52.840115
4532,53.0,52.93346
4533,53.0,52.92607
4534,50.0,52.91786
4535,53.0,53.242065
4536,53.0,53.268963
4537,54.0,53.29885
4538,56.0,53.220947
4539,51.0,52.912167
4540,53.0,53.124634
4541,53.0,53.138485
4542,53.0,53.153873
4543,53.0,53.17097
4544,53.0,53.189972
4545,53.0,53.211082
4546,53.0,53.23454
4547,53.0,53.2606
4548,54.0,53.28956
4549,57.0,53.21062
4550,49.0,52.789577
4551,53.0,53.21064
4552,53.0,53.234047
4553,54.0,53.260056
4554,56.0,53.17784
4555,51.0,52.86427
4556,54.0,53.071415
4557,53.0,52.96824
4558,55.0,52.964714
4559,55.0,52.73857
4560,51.0,52.4873
4561,49.0,52.65256
4562,49.0,53.058403
4563,54.0,53.50934
4564,53.0,53.45482
4565,58.0,53.505356
4566,51.0,53.005955
4567,54.0,53.22884
4568,53.0,53.143154
4569,53.0,53.15906
4570,57.0,53.17674
4571,48.0,52.751934
4572,53.0,53.27993
4573,54.0,53.311035
4574,53.0,53.23448
4575,53.0,53.260536
4576,53.0,53.289486
4577,53.0,53.32165
4578,54.0,53.35739
4579,53.0,53.28599
4580,54.0,53.317772
4581,54.0,53.24197
4582,53.0,53.157745
4583,53.0,53.175274
4584,53.0,53.19475
4585,53.0,53.216393
4586,58.0,53.240437
4587,49.0,52.711597
4588,55.0,53.123997
4589,55.0,52.915554
4590,52.0,52.683952
4591,49.0,52.75995
4592,53.0,53.17772
4593,53.0,53.197468
4594,53.0,53.21941
4595,54.0,53.24379
4596,53.0,53.159767
4597,54.0,53.17752
4598,55.0,53.086132
4599,49.0,52.87348
4600,53.0,53.303867
4601,54.0,53.33763
4602,57.0,53.264034
4603,50.0,52.848927
4604,57.0,53.165474
4605,53.0,52.739414
4606,52.0,52.71046
4607,48.0,52.789402
4608,54.0,53.32156
4609,53.0,53.246178
4610,54.0,53.273533
4611,53.0,53.192814
4612,53.0,53.21424
4613,54.0,53.23805
4614,57.0,53.15339
4615,49.0,52.725986
4616,54.0,53.139984
4617,53.0,53.044426
4618,58.0,53.049366
4619,51.0,52.4993
4620,52.0,52.66589
4621,49.0,52.73988
4622,54.0,53.155422
4623,53.0,53.06158
4624,53.0,53.068424
4625,53.0,53.07603
4626,53.0,53.08448
4627,53.0,53.09387
4628,53.0,53.1043
4629,53.0,53.115894
4630,55.0,53.128773
4631,52.0,52.92086
4632,53.0,53.02318
4633,54.0,53.025757
4634,57.0,52.917507
4635,48.0,52.463898
4636,53.0,52.95989
4637,53.0,52.955433
4638,54.0,52.950485
4639,53.0,52.833874
4640,54.0,52.81542
4641,54.0,52.6838
4642,53.0,52.537556
4643,53.0,52.486176
4644,54.0,52.429085
4645,53.0,52.25454
4646,53.0,52.17171
4647,54.0,52.07968
4648,58.0,51.866314
4649,51.0,51.184795
4650,47.0,51.20533
4651,43.0,51.67259
4652,49.0,52.63621
4653,53.0,53.040234
4654,53.0,53.044704
4655,53.0,53.049675
4656,54.0,53.0552
4657,53.0,52.950222
4658,53.0,52.944695
4659,53.0,52.938553
4660,53.0,52.93173
4661,54.0,52.924145
4662,53.0,52.804604
4663,55.0,52.782894
4664,48.0,52.53655
4665,53.0,53.04061
4666,55.0,53.045124
4667,49.0,52.82792
4668,53.0,53.253242
4669,53.0,53.281384
4670,53.0,53.312653
4671,54.0,53.347393
4672,54.0,53.27488
4673,54.0,53.19431
4674,54.0,53.104786
4675,53.0,53.005318
4676,53.0,53.005913
4677,53.0,53.006573
4678,56.0,53.007305
4679,55.0,52.674786
4680,49.0,52.41643
4681,50.0,52.796036
4682,55.0,53.10671
4683,50.0,52.896343
4684,53.0,53.218163
4685,53.0,53.242405
4686,54.0,53.26934
4687,53.0,53.188156
4688,53.0,53.209064
4689,53.0,53.232296
4690,54.0,53.25811
4691,54.0,53.17568
4692,54.0,53.084087
4693,58.0,52.98232
4694,55.0,52.4248
4695,53.0,52.138668
4696,48.0,52.042965
4697,49.0,52.492188
4698,53.0,52.880207
4699,50.0,52.866898
4700,53.0,53.185444
4701,54.0,53.20605
4702,52.0,53.117836
4703,53.0,53.242043
4704,54.0,53.26894
4705,53.0,53.18771
4706,53.0,53.20857
4707,53.0,53.231747
4708,54.0,53.2575
4709,57.0,53.175
4710,52.0,52.75
4711,50.0,52.833336
4712,53.0,53.14815
4713,52.0,53.164616
4714,53.0,53.294018
4715,53.0,53.326687
4716,54.0,53.362988
4717,53.0,53.29221
4718,54.0,53.32468
4719,53.0,53.249645
4720,53.0,53.277386
4721,54.0,53.30821
4722,53.0,53.231342
4723,54.0,53.25705
4724,54.0,53.1745
4725,53.0,53.08278
4726,53.0,53.09198
4727,53.0,53.102203
4728,57.0,53.113564
4729,48.0,52.681736
4730,53.0,53.20193
4731,52.0,53.22437
4732,53.0,53.360413
4733,53.0,53.40046
4734,53.0,53.444958
4735,53.0,53.4944
4736,54.0,53.549335
4737,55.0,53.49926
4738,58.0,53.33251
4739,55.0,52.813904
4740,51.0,52.571007
4741,45.0,52.745567
4742,55.0,53.606186
4743,54.0,53.45132
4744,57.0,53.390358
4745,51.0,52.98929
4746,53.0,53.210323
4747,53.0,53.233696
4748,54.0,53.259663
4749,53.0,53.177402
4750,53.0,53.197117
4751,53.0,53.21902
4752,53.0,53.24336
4753,54.0,53.2704
4754,53.0,53.189335
4755,53.0,53.210373
4756,53.0,53.23375
4757,53.0,53.259724
4758,53.0,53.288586
4759,54.0,53.320652
4760,54.0,53.24517
4761,53.0,53.1613
4762,52.0,53.179226
4763,53.0,53.310253
4764,53.0,53.344727
4765,54.0,53.383034
4766,53.0,53.314484
4767,54.0,53.34943
4768,54.0,53.277145
4769,57.0,53.196827
4770,53.0,52.774254
4771,49.0,52.749172
4772,54.0,53.165745
4773,53.0,53.073048
4774,53.0,53.081165
4775,53.0,53.090187
4776,54.0,53.10021
4777,55.0,53.000233
4778,49.0,52.778038
4779,53.0,53.19782
4780,53.0,53.219803
4781,54.0,53.24423
4782,54.0,53.16025
4783,57.0,53.066944
4784,53.0,52.62994
4785,52.0,52.588825
4786,49.0,52.65425
4787,53.0,53.06028
4788,53.0,53.06698
4789,53.0,53.07442
4790,52.0,53.08269
4791,53.0,53.20299
4792,53.0,53.225548
4793,58.0,53.25061
4794,48.0,52.722904
4795,53.0,53.247673
4796,53.0,53.275196
4797,53.0,53.305775
4798,54.0,53.339752
4799,57.0,53.26639
4800,54.0,52.851547
4801,48.0,52.72394
4802,53.0,53.248825
4803,53.0,53.276474
4804,53.0,53.307194
4805,53.0,53.341328
4806,53.0,53.379257
4807,53.0,53.4214
4808,55.0,53.468224
4809,56.0,53.298027
4810,51.0,52.99781
4811,53.0,53.21979
4812,53.0,53.244213
4813,53.0,53.27135
4814,53.0,53.301502
4815,53.0,53.335003
4816,53.0,53.372227
4817,53.0,53.41359
4818,54.0,53.459545
4819,53.0,53.399494
4820,53.0,53.443886
4821,53.0,53.49321
4822,53.0,53.54801
4823,54.0,53.608906
4824,53.0,53.56545
4825,58.0,53.62828
4826,51.0,53.142536
4827,57.0,53.3806
4828,55.0,52.978443
4829,55.0,52.753826
4830,50.0,52.504253
4831,48.0,52.782505
4832,53.0,53.313896
4833,54.0,53.348778
4834,53.0,53.27642
4835,53.0,53.307137
4836,54.0,53.341267
4837,53.0,53.268074
4838,52.0,53.297863
4839,53.0,53.44207
4840,53.0,53.49119
4841,57.0,53.545773
4842,54.0,53.16197
4843,49.0,53.06885
4844,54.0,53.520947
4845,54.0,53.467716
4846,53.0,53.408573
4847,53.0,53.45397
4848,53.0,53.504414
4849,53.0,53.560463
4850,53.0,53.622738
4851,54.0,53.691933
4852,53.0,53.657703
4853,55.0,53.730785
4854,53.0,53.589764
4855,53.0,53.655296
4856,54.0,53.728107
4857,59.0,53.6979
4858,55.0,53.108776
4859,53.0,52.898643
4860,54.0,52.887383
4861,48.0,52.76376
4862,53.0,53.293068
4863,54.0,53.325634
4864,53.0,53.250706
4865,53.0,53.278564
4866,54.0,53.309517
4867,53.0,53.232796
4868,53.0,53.258663
4869,54.0,53.287407
4870,53.0,53.20823
4871,54.0,53.23137
4872,58.0,53.145966
4873,55.0,52.606632
4874,50.0,52.340702
4875,49.0,52.60078
4876,52.0,53.000866
4877,53.0,53.112072
4878,52.0,53.124527
4879,53.0,53.249474
4880,53.0,53.277195
4881,53.0,53.307995
4882,53.0,53.34222
4883,54.0,53.38025
4884,53.0,53.311386
4885,54.0,53.345985
4886,54.0,53.273315
4887,53.0,53.192574
4888,54.0,53.213974
4889,60.0,53.126637
4890,49.0,52.36293
4891,50.0,52.736588
4892,52.0,53.040653
4893,53.0,53.15628
4894,53.0,53.17365
4895,53.0,53.192944
4896,53.0,53.214386
4897,54.0,53.23821
4898,53.0,53.153564
4899,53.0,53.170628
4900,53.0,53.18959
4901,53.0,53.21066
4902,54.0,53.234066
4903,53.0,53.148964
4904,53.0,53.16552
4905,57.0,53.183914
4906,49.0,52.759907
4907,55.0,53.177673
4908,49.0,52.975193
4909,53.0,53.41688
4910,54.0,53.463203
4911,54.0,53.40356
4912,53.0,53.337288
4913,54.0,53.374767
4914,53.0,53.305298
4915,53.0,53.339222
4916,54.0,53.376915
4917,57.0,53.307682
4918,55.0,52.897427
4919,55.0,52.66381
4920,49.0,52.404236
4921,52.0,52.782482
4922,48.0,52.869427
4923,58.0,53.410477
4924,50.0,52.90053
4925,54.0,53.222813
4926,53.0,53.13646
4927,54.0,53.151623
4928,53.0,53.057358
4929,53.0,53.063732
4930,52.0,53.070816
4931,53.0,53.189796
4932,53.0,53.210888
4933,53.0,53.23432
4934,54.0,53.26036
4935,54.0,53.178177
4936,53.0,53.086864
4937,55.0,53.09652
4938,49.0,52.88502
4939,56.0,53.31669
4940,52.0,53.018547
4941,53.0,53.131718
4942,53.0,53.146355
4943,54.0,53.162617
4944,53.0,53.069572
4945,53.0,53.077305
4946,53.0,53.085896
4947,53.0,53.09544
4948,53.0,53.106045
4949,56.0,53.11783
4950,53.0,52.79759
4951,50.0,52.7751
4952,54.0,53.083447
4953,55.0,52.981606
4954,50.0,52.75734
4955,53.0,53.063713
4956,53.0,53.070793
4957,52.0,53.078663
4958,53.0,53.198513
4959,53.0,53.220573
4960,54.0,53.245083
4961,55.0,53.1612
4962,57.0,52.956894
4963,54.0,52.50766
4964,51.0,52.341843
4965,48.0,52.49094
4966,53.0,52.989937
4967,53.0,52.988823
4968,54.0,52.987583
4969,55.0,52.87509
4970,49.0,52.638992
4971,53.0,53.043324
4972,58.0,53.04814
4973,48.0,52.497936
4974,52.0,52.997707
4975,52.0,53.108566
4976,53.0,53.23174
4977,53.0,53.257492
4978,54.0,53.286106
4979,56.0,53.206783
4980,53.0,52.896427
4981,51.0,52.884922
4982,52.0,53.09436
4983,53.0,53.215958
4984,54.0,53.239956
4985,55.0,53.155506
4986,49.0,52.950565
4987,54.0,53.38952
4988,57.0,53.321686
4989,51.0,52.912983
4990,53.0,53.125538
4991,53.0,53.13949
4992,53.0,53.154987
4993,53.0,53.17221
4994,53.0,53.19135
4995,53.0,53.212612
4996,53.0,53.236237
4997,54.0,53.26249
4998,54.0,53.180542
4999,53.0,53.089493
5000,54.0,53.099438
5001,55.0,52.999374
5002,49.0,52.777084
5003,53.0,53.196762
5004,54.0,53.218628
5005,53.0,53.13181
5006,54.0,53.146458
5007,57.0,53.05162
5008,53.0,52.61291
5009,53.0,52.569904
5010,51.0,52.522118
5011,50.0,52.691246
5012,52.0,52.990276
5013,53.0,53.100307
5014,54.0,53.111454
5015,54.0,53.012726
5016,54.0,52.903027
5017,52.0,52.78114
5018,52.0,52.867935
5019,53.0,52.964375
5020,54.0,52.96042
5021,55.0,52.84491
5022,48.0,52.605457
5023,53.0,53.117176
5024,53.0,53.1302
5025,53.0,53.14467
5026,53.0,53.160744
5027,54.0,53.178608
5028,53.0,53.08734
5029,53.0,53.09705
5030,53.0,53.107834
5031,53.0,53.119816
5032,54.0,53.13313
5033,53.0,53.036808
5034,52.0,53.0409
5035,53.0,53.15656
5036,53.0,53.173958
5037,57.0,53.19329
5038,48.0,52.770325
5039,54.0,53.30036
5040,55.0,53.222626
5041,52.0,53.025143
5042,52.0,53.13905
5043,53.0,53.26561
5044,54.0,53.295124
5045,53.0,53.216805
5046,53.0,53.2409
5047,53.0,53.267666
5048,53.0,53.29741
5049,52.0,53.330456
5050,54.0,53.478283
5051,57.0,53.420315
5052,58.0,53.02257
5053,53.0,52.46953
5054,50.0,52.410587
5055,48.0,52.678432
5056,53.0,53.19826
5057,54.0,53.22029
5058,53.0,53.133656
5059,54.0,53.14851
5060,53.0,53.053898
5061,53.0,53.059887
5062,53.0,53.066544
5063,54.0,53.07394
5064,53.0,52.971043
5065,53.0,52.967827
5066,54.0,52.964252
5067,53.0,52.84917
5068,54.0,52.832413
5069,54.0,52.702682
5070,51.0,52.558537
5071,52.0,52.73171
5072,49.0,52.81301
5073,53.0,53.23668
5074,53.0,53.262978
5075,54.0,53.2922
5076,53.0,53.213554
5077,53.0,53.237286
5078,53.0,53.263653
5079,53.0,53.29295
5080,53.0,53.3255
5081,53.0,53.36167
5082,54.0,53.40186
5083,53.0,53.3354
5084,54.0,53.37267
5085,54.0,53.302967
5086,57.0,53.225517
5087,49.0,52.80613
5088,53.0,53.22903
5089,53.0,53.254482
5090,53.0,53.28276
5091,53.0,53.314182
5092,53.0,53.349094
5093,53.0,53.387886
5094,53.0,53.43099
5095,54.0,53.478878
5096,58.0,53.420975
5097,55.0,52.912197
5098,53.0,52.68022
5099,49.0,52.64469
5100,53.0,53.049656
5101,52.0,53.055176
5102,56.0,53.172417
5103,48.0,52.858242
5104,54.0,53.39805
5105,53.0,53.331165
5106,53.0,53.36796
5107,53.0,53.408848
5108,54.0,53.454277
5109,54.0,53.393642
5110,54.0,53.326267
5111,54.0,53.251408
5112,54.0,53.168232
5113,52.0,53.075813
5114,53.0,53.195347
5115,53.0,53.217052
5116,53.0,53.241173
5117,54.0,53.26797
5118,54.0,53.186634
5119,52.0,53.09626
5120,53.0,53.218067
5121,53.0,53.2423
5122,54.0,53.269222
5123,53.0,53.188023
5124,54.0,53.208916
5125,53.0,53.121017
5126,54.0,53.134464
5127,53.0,53.038292
5128,56.0,53.04255
5129,53.0,52.713947
5130,55.0,52.682167
5131,51.0,52.424633
5132,48.0,52.582928
5133,53.0,53.092144
5134,54.0,53.102383
5135,55.0,53.002647
5136,49.0,52.78072
5137,54.0,53.200798
5138,53.0,53.111996
5139,54.0,53.124443
5140,53.0,53.027157
5141,57.0,53.030178
5142,55.0,52.58909
5143,52.0,52.321213
5144,50.0,52.356903
5145,49.0,52.618782
5146,53.0,53.02087
5147,53.0,53.02319
5148,53.0,53.02577
5149,53.0,53.028633
5150,53.0,53.03182
5151,57.0,53.035355
5152,49.0,52.594837
5153,53.0,52.994263
5154,53.0,52.99363
5155,53.0,52.992924
5156,53.0,52.99214
5157,52.0,52.991272
5158,53.0,53.101414
5159,54.0,53.112686
5160,59.0,53.014095
5161,49.0,52.348995
5162,49.0,52.721104
5163,53.0,53.13456
5164,53.0,53.149513
5165,53.0,53.16613
5166,52.0,53.18459
5167,54.0,53.31621
5168,52.0,53.240234
5169,54.0,53.37804
5170,53.0,53.308933
5171,52.0,53.34326
5172,54.0,53.49251
5173,53.0,53.436123
5174,53.0,53.484585
5175,53.0,53.53843
5176,58.0,53.598255
5177,51.0,53.109173
5178,53.0,53.34353
5179,53.0,53.381702
5180,54.0,53.424114
5181,53.0,53.360126
5182,53.0,53.400143
5183,54.0,53.444607
5184,54.0,53.382896
5185,55.0,53.314327
5186,57.0,53.127033
5187,53.0,52.696705
5188,51.0,52.66301
5189,49.0,52.847794
5190,57.0,53.275326
5191,53.0,52.861473
5192,53.0,52.846085
5193,49.0,52.828987
5194,54.0,53.25443
5195,53.0,53.17159
5196,54.0,53.19066
5197,53.0,53.10073
5198,53.0,53.111927
5199,53.0,53.124367
5200,57.0,53.138187
5201,48.0,52.7091
5202,54.0,53.232334
5203,53.0,53.147038
5204,53.0,53.163376
5205,53.0,53.18153
5206,53.0,53.201702
5207,53.0,53.224117
5208,58.0,53.249023
5209,48.0,52.721138
5210,54.0,53.245712
5211,53.0,53.161903
5212,53.0,53.179893
5213,53.0,53.199883
5214,54.0,53.222095
5215,53.0,53.135662
5216,57.0,53.150738
5217,48.0,52.72304
5218,53.0,53.247826
5219,53.0,53.275364
5220,57.0,53.30596
5221,54.0,52.895515
5222,49.0,52.772793
5223,54.0,53.191994
5224,57.0,53.102215
5225,49.0,52.66913
5226,53.0,53.07681
5227,53.0,53.085346
5228,53.0,53.09483
5229,53.0,53.10537
5230,53.0,53.11708
5231,57.0,53.130093
5232,53.0,52.700104
5233,51.0,52.666786
5234,48.0,52.85199
5235,54.0,53.3911
5236,54.0,53.32345
5237,53.0,53.248276
5238,54.0,53.275864
5239,53.0,53.195404
5240,58.0,53.217117
5241,49.0,52.685688
5242,53.0,53.095207
5243,53.0,53.10579
5244,53.0,53.117546
5245,53.0,53.130608
5246,53.0,53.145123
5247,54.0,53.16125
5248,54.0,53.068058
5249,53.0,52.964508
5250,56.0,52.960567
5251,53.0,52.622856
5252,48.0,52.58095
5253,53.0,53.089947
5254,53.0,53.099945
5255,53.0,53.111053
5256,58.0,53.123394
5257,48.0,52.58155
5258,53.0,53.090614
5259,53.0,53.100685
5260,53.0,53.111874
5261,53.0,53.124306
5262,53.0,53.13812
5263,53.0,53.15347
5264,53.0,53.170525
5265,57.0,53.189472
5266,49.0,52.76608
5267,54.0,53.184532
5268,53.0,53.093925
5269,53.0,53.104362
5270,53.0,53.11596
5271,53.0,53.128845
5272,55.0,53.14316
5273,49.0,52.936848
5274,53.0,53.374275
5275,56.0,53.415863
5276,57.0,53.12874
5277,53.0,52.6986
5278,50.0,52.665115
5279,49.0,52.961243
5280,58.0,53.40138
5281,55.0,52.890423
5282,48.0,52.656025
5283,53.0,53.173363
5284,53.0,53.192627
5285,53.0,53.21403
5286,53.0,53.237816
5287,53.0,53.26424
5288,57.0,53.293602
5289,50.0,52.88178
5290,53.0,53.201977
5291,53.0,53.224422
5292,53.0,53.24936
5293,53.0,53.27707
5294,54.0,53.307858
5295,53.0,53.230953
5296,54.0,53.25662
5297,54.0,53.17402
5298,53.0,53.082245
5299,53.0,53.091385
5300,54.0,53.10154
5301,53.0,53.00171
5302,53.0,53.0019
5303,54.0,53.002113
5304,55.0,52.891235
5305,50.0,52.65693
5306,53.0,52.952145
5307,53.0,52.94683
5308,53.0,52.940926
5309,53.0,52.934364
5310,57.0,52.927074
5311,52.0,52.47453
5312,48.0,52.527256
5313,53.0,53.030285
5314,55.0,53.033653
5315,50.0,52.81517
5316,54.0,53.127968
5317,53.0,53.031075
5318,53.0,53.03453
5319,53.0,53.03837
5320,57.0,53.042633
5321,54.0,52.60293
5322,53.0,52.447697
5323,48.0,52.386333
5324,50.0,52.873707
5325,53.0,53.19301
5326,53.0,53.214455
5327,54.0,53.238285
5328,53.0,53.15365
5329,54.0,53.170723
5330,57.0,53.078583
5331,48.0,52.64287
5332,53.0,53.15875
5333,53.0,53.176388
5334,53.0,53.195988
5335,53.0,53.217766
5336,53.0,53.241962
5337,52.0,53.26885
5338,53.0,53.409832
5339,54.0,53.45537
5340,59.0,53.394855
5341,53.0,52.77206
5342,47.0,52.746735
5343,54.0,53.38526
5344,53.0,53.316956
5345,54.0,53.352177
5346,55.0,53.280197
5347,51.0,53.089108
5348,54.0,53.321236
5349,53.0,53.245815
5350,54.0,53.27313
5351,53.0,53.192364
5352,52.0,53.21374
5353,53.0,53.348602
5354,54.0,53.387337
5355,54.0,53.319263
5356,54.0,53.243626
5357,53.0,53.159584
5358,53.0,53.17732
5359,53.0,53.19702
5360,53.0,53.218914
5361,53.0,53.24324
5362,53.0,53.270267
5363,53.0,53.3003
5364,53.0,53.333668
5365,58.0,53.370743
5366,55.0,52.856384
5367,53.0,52.618206
5368,51.0,52.575787
5369,50.0,52.750877
5370,58.0,53.05653
5371,53.0,52.50726
5372,47.0,52.452515
5373,52.0,53.05835
5374,53.0,53.175945
5375,54.0,53.195496
5376,53.0,53.106106
5377,53.0,53.117897
5378,53.0,53.131
5379,55.0,53.145557
5380,49.0,52.93951
5381,54.0,53.37723
5382,54.0,53.308037
5383,54.0,53.23115
5384,53.0,53.145725
5385,53.0,53.16192
5386,53.0,53.179913
5387,53.0,53.199905
5388,53.0,53.22212
5389,53.0,53.2468
5390,53.0,53.274223
5391,53.0,53.304695
5392,54.0,53.338554
5393,53.0,53.26506
5394,54.0,53.294514
5395,58.0,53.216125
5396,48.0,52.684586
5397,53.0,53.205097
5398,53.0,53.227886
5399,53.0,53.25321
5400,55.0,53.281345
5401,53.0,53.090385
5402,52.0,53.10043
5403,52.0,53.222702
5404,54.0,53.35856
5405,53.0,53.28729
5406,53.0,53.31921
5407,53.0,53.35468
5408,55.0,53.39409
5409,55.0,53.215656
5410,57.0,53.0174
5411,54.0,52.574886
5412,51.0,52.41654
5413,48.0,52.573936
5414,52.0,53.082153
5415,54.0,53.202393
5416,52.0,53.11377
5417,54.0,53.237522
5418,54.0,53.1528
5419,53.0,53.05867
5420,53.0,53.06519
5421,53.0,53.072433
5422,53.0,53.080482
5423,53.0,53.089428
5424,53.0,53.099365
5425,53.0,53.11041
5426,54.0,53.122677
5427,53.0,53.025196
5428,53.0,53.027996
5429,52.0,53.03111
5430,55.0,53.145676
5431,53.0,52.93964
5432,51.0,52.932938
5433,52.0,53.147713
5434,53.0,53.275238
5435,54.0,53.305824
5436,53.0,53.228695
5437,53.0,53.25411
5438,53.0,53.282345
5439,54.0,53.313717
5440,53.0,53.23746
5441,53.0,53.263847
5442,53.0,53.293167
5443,54.0,53.325745
5444,57.0,53.250828
5445,49.0,52.834255
5446,54.0,53.260284
5447,54.0,53.178093
5448,52.0,53.08677
5449,53.0,53.207523
5450,53.0,53.230583
5451,53.0,53.256207
5452,53.0,53.284676
5453,53.0,53.316307
5454,53.0,53.351456
5455,58.0,53.39051
5456,53.0,52.878345
5457,52.0,52.86483
5458,49.0,52.960922
5459,53.0,53.401024
5460,59.0,53.445583
5461,49.0,52.828426
5462,51.0,53.253807
5463,58.0,53.504234
5464,51.0,53.004707
5465,53.0,53.227455
5466,53.0,53.25273
5467,53.0,53.280815
5468,53.0,53.31202
5469,53.0,53.34669
5470,53.0,53.385216
5471,53.0,53.42802
5472,53.0,53.475582
5473,54.0,53.528427
5474,53.0,53.47603
5475,53.0,53.528923
5476,53.0,53.587696
5477,53.0,53.652996
5478,54.0,53.725555
5479,57.0,53.69506
5480,53.0,53.327847
5481,54.0,53.364277
5482,53.0,53.29364
5483,53.0,53.32627
5484,53.0,53.362526
5485,53.0,53.40281
5486,53.0,53.447567
5487,54.0,53.4973
5488,53.0,53.441444
5489,53.0,53.490498
5490,56.0,53.545
5491,55.0,53.272224
5492,51.0,53.08025
5493,52.0,53.311394
5494,54.0,53.457104
5495,58.0,53.396782
5496,48.0,52.885315
5497,54.0,53.42813
5498,54.0,53.36459
5499,54.0,53.293987
5500,57.0,53.21554
5501,53.0,52.795048
5502,51.0,52.772278
5503,50.0,52.9692
5504,53.0,53.299114
5505,54.0,53.33235
5506,54.0,53.258167
5507,53.0,53.175743
5508,53.0,53.195274
5509,57.0,53.216972
5510,48.0,52.79664
5511,58.0,53.3296
5512,48.0,52.81067
5513,53.0,53.345192
5514,54.0,53.38355
5515,53.0,53.315052
5516,54.0,53.35006
5517,52.0,53.277843
5518,54.0,53.419827
5519,53.0,53.355362
5520,54.0,53.394848
5521,55.0,53.32761
5522,51.0,53.14179
5523,52.0,53.37977
5524,53.0,53.533077
5525,58.0,53.59231
5526,52.0,53.10257
5527,58.0,53.22508
5528,48.0,52.694534
5529,53.0,53.216152
5530,54.0,53.240173
5531,53.0,53.155746
5532,53.0,53.173054
5533,53.0,53.192284
5534,53.0,53.21365
5535,53.0,53.237392
5536,54.0,53.26377
5537,53.0,53.18197
5538,53.0,53.20219
5539,53.0,53.22466
5540,53.0,53.249622
5541,54.0,53.27736
5542,53.0,53.197067
5543,57.0,53.218967
5544,50.0,52.798855
5545,57.0,53.10984
5546,53.0,52.6776
5547,52.0,52.64178
5548,50.0,52.71309
5549,54.0,53.014545
5550,54.0,52.905052
5551,55.0,52.78339
5552,52.0,52.5371
5553,49.0,52.59678
5554,53.0,52.99642
5555,52.0,52.996025
5556,54.0,53.106693
5557,54.0,53.00744
5558,55.0,52.897156
5559,52.0,52.66351
5560,50.0,52.737232
5561,53.0,53.04137
5562,53.0,53.04597
5563,53.0,53.051083
5564,53.0,53.056763
5565,53.0,53.063072
5566,53.0,53.070084
5567,53.0,53.077873
5568,54.0,53.08653
5569,53.0,52.98503
5570,54.0,52.98337
5571,52.0,52.870415
5572,53.0,52.96713
5573,53.0,52.963478
5574,58.0,52.959423
5575,51.0,52.39936
5576,50.0,52.554848
5577,52.0,52.838722
5578,53.0,52.931915
5579,53.0,52.924355
5580,53.0,52.91595
5581,55.0,52.906612
5582,53.0,52.674015
5583,49.0,52.6378
5584,53.0,53.042
5585,54.0,53.04667
5586,54.0,52.940742
5587,54.0,52.823048
5588,53.0,52.692276
5589,56.0,52.658085
5590,58.0,52.286762
5591,47.0,51.651962
5592,48.0,52.168846
5593,48.0,52.632053
5594,53.0,53.14673
5595,53.0,53.163033
5596,53.0,53.18115
5597,53.0,53.20128
5598,54.0,53.223644
5599,53.0,53.137383
5600,53.0,53.15265
5601,53.0,53.169613
5602,53.0,53.18846
5603,53.0,53.209404
5604,54.0,53.232674
5605,54.0,53.147415
5606,53.0,53.052685
5607,52.0,53.05854
5608,52.0,53.176155
5609,53.0,53.30684
5610,54.0,53.340935
5611,57.0,53.267704
5612,54.0,52.853004
5613,49.0,52.72556
5614,53.0,53.13951
5615,53.0,53.155014
5616,53.0,53.17224
5617,53.0,53.19138
5618,54.0,53.212646
5619,54.0,53.125164
5620,53.0,53.027958
5621,53.0,53.031067
5622,55.0,53.03452
5623,55.0,52.816135
5624,48.0,52.573486
5625,52.0,53.081654
5626,53.0,53.20184
5627,54.0,53.22427
5628,53.0,53.138077
5629,54.0,53.15342
5630,53.0,53.059353
5631,53.0,53.06595
5632,53.0,53.07328
5633,54.0,53.081425
5634,57.0,52.97936
5635,53.0,52.532623
5636,54.0,52.480694
5637,49.0,52.311882
5638,50.0,52.679867
5639,56.0,52.97763
5640,49.0,52.641815
5641,57.0,53.046463
5642,53.0,52.60718
5643,48.0,52.563538
5644,53.0,53.0706
5645,53.0,53.078445
5646,54.0,53.087162
5647,53.0,52.985737
5648,53.0,52.984154
5649,53.0,52.982395
5650,53.0,52.980442
5651,53.0,52.97827
5652,53.0,52.97586
5653,53.0,52.973183
5654,53.0,52.970207
5655,53.0,52.9669
5656,52.0,52.963226
5657,53.0,53.07025
5658,53.0,53.07806
5659,53.0,53.086735
5660,53.0,53.096375
5661,53.0,53.107086
5662,53.0,53.118988
5663,53.0,53.13221
5664,53.0,53.146904
5665,54.0,53.16323
5666,53.0,53.070255
5667,53.0,53.078064
5668,53.0,53.08674
5669,54.0,53.09638
5670,54.0,52.995975
5671,55.0,52.88442
5672,53.0,52.649357
5673,48.0,52.610397
5674,53.0,53.122665
5675,53.0,53.136295
5676,53.0,53.151443
5677,54.0,53.168274
5678,53.0,53.07586
5679,57.0,53.08429
5680,53.0,52.64921
5681,52.0,52.610237
5682,48.0,52.678043
5683,52.0,53.19783
5684,53.0,53.330925
5685,53.0,53.3677
5686,55.0,53.408558
5687,52.0,53.23173
5688,57.0,53.36859
5689,49.0,52.965103
5690,53.0,53.40567
5691,54.0,53.45075
5692,54.0,53.38972
5693,53.0,53.32191
5694,54.0,53.35768
5695,54.0,53.286312
5696,54.0,53.207012
5697,53.0,53.1189
5698,53.0,53.132114
5699,53.0,53.146797
5700,53.0,53.16311
5701,57.0,53.181232
5702,53.0,52.756924
5703,49.0,52.72992
5704,55.0,53.144356
5705,51.0,52.938175
5706,53.0,53.15353
5707,53.0,53.170593
5708,53.0,53.189552
5709,54.0,53.210617
5710,53.0,53.122906
5711,53.0,53.136566
5712,53.0,53.15174
5713,53.0,53.168602
5714,53.0,53.187336
5715,53.0,53.208153
5716,54.0,53.231285
5717,53.0,53.145874
5718,54.0,53.162086
5719,52.0,53.068985
5720,54.0,53.187763
5721,53.0,53.097515
5722,53.0,53.108353
5723,54.0,53.120396
5724,57.0,53.022663
5725,53.0,52.580738
5726,52.0,52.534157
5727,48.0,52.59351
5728,54.0,53.1039
5729,54.0,53.004333
5730,53.0,52.893703
5731,57.0,52.881893
5732,52.0,52.424328
5733,47.0,52.471478
5734,54.0,53.07942
5735,52.0,52.97713
5736,54.0,53.0857
5737,55.0,52.98411
5738,48.0,52.760124
5739,53.0,53.28903
5740,54.0,53.321144
5741,53.0,53.245716
5742,53.0,53.27302
5743,53.0,53.30336
5744,53.0,53.33707
5745,53.0,53.374527
5746,53.0,53.41614
5747,54.0,53.462383
5748,53.0,53.40265
5749,53.0,53.44739
5750,55.0,53.497105
5751,52.0,53.330116
5752,53.0,53.47791
5753,58.0,53.531013
5754,50.0,53.034462
5755,53.0,53.371628
5756,53.0,53.41292
5757,53.0,53.458805
5758,54.0,53.509785
5759,54.0,53.455315
5760,53.0,53.394794
5761,58.0,53.438663
5762,54.0,52.93185
5763,47.0,52.813168
5764,53.0,53.459076
5765,53.0,53.510086
5766,57.0,53.566765
5767,52.0,53.185295
5768,55.0,53.316994
5769,59.0,53.129993
5770,51.0,52.47777
5771,52.0,52.64197
5772,48.0,52.713303
5773,53.0,53.237007
5774,53.0,53.263344
5775,53.0,53.292606
5776,54.0,53.32512
5777,53.0,53.250134
5778,53.0,53.277927
5779,54.0,53.30881
5780,53.0,53.232014
5781,54.0,53.257797
5782,58.0,53.17533
5783,48.0,52.63926
5784,54.0,53.154736
5785,53.0,53.060818
5786,53.0,53.067577
5787,52.0,53.07509
5788,53.0,53.194542
5789,54.0,53.21616
5790,53.0,53.129066
5791,57.0,53.14341
5792,53.0,52.7149
5793,49.0,52.683228
5794,53.0,53.092476
5795,53.0,53.102753
5796,53.0,53.114174
5797,53.0,53.12686
5798,58.0,53.14096
5799,48.0,52.60107
5800,53.0,53.112305
5801,54.0,53.124786
5802,55.0,53.027542
5803,49.0,52.80838
5804,53.0,53.231533
5805,53.0,53.257263
5806,54.0,53.28585
5807,53.0,53.2065
5808,53.0,53.229446
5809,53.0,53.254944
5810,53.0,53.28327
5811,53.0,53.31475
5812,53.0,53.349724
5813,55.0,53.388584
5814,59.0,53.209538
5815,49.0,52.56615
5816,52.0,52.96239
5817,49.0,53.069324
5818,59.0,53.521473
5819,52.0,52.912746
5820,53.0,53.014164
5821,55.0,53.01574
5822,53.0,52.79527
5823,51.0,52.772522
5824,52.0,52.96947
5825,53.0,53.07719
5826,53.0,53.08577
5827,53.0,53.095303
5828,52.0,53.105896
5829,53.0,53.228775
5830,57.0,53.254196
5831,48.0,52.837997
5832,54.0,53.375553
5833,54.0,53.30617
5834,55.0,53.22908
5835,53.0,53.032314
5836,53.0,53.035908
5837,53.0,53.039898
5838,53.0,53.044334
5839,53.0,53.049263
5840,53.0,53.05474
5841,54.0,53.060825
5842,53.0,52.95647
5843,53.0,52.951637
5844,53.0,52.946266
5845,53.0,52.940296
5846,57.0,52.933666
5847,49.0,52.481853
5848,53.0,52.868725
5849,53.0,52.85414
5850,53.0,52.837936
5851,55.0,52.81993
5852,51.0,52.5777
5853,50.0,52.753006
5854,52.0,53.058895
5855,53.0,53.17655
5856,53.0,53.19617
5857,53.0,53.217968
5858,58.0,53.242188
5859,55.0,52.713543
5860,53.0,52.459496
5861,48.0,52.39944
5862,53.0,52.88827
5863,50.0,52.87586
5864,53.0,53.1954
5865,53.0,53.217113
5866,54.0,53.24124
5867,57.0,53.156937
5868,48.0,52.72993
5869,53.0,53.25548
5870,54.0,53.28387
5871,53.0,53.2043
5872,53.0,53.227
5873,53.0,53.252228
5874,54.0,53.280254
5875,53.0,53.200283
5876,53.0,53.222538
5877,53.0,53.247265
5878,55.0,53.274742
5879,50.0,53.08305
5880,53.0,53.425613
5881,55.0,53.472908
5882,55.0,53.303234
5883,56.0,53.114708
5884,50.0,52.794125
5885,53.0,53.104584
5886,53.0,53.116207
5887,53.0,53.12912
5888,53.0,53.14347
5889,53.0,53.159416
5890,53.0,53.17713
5891,54.0,53.196815
5892,53.0,53.10757
5893,54.0,53.119526
5894,55.0,53.021694
5895,49.0,52.801884
5896,54.0,53.224316
5897,53.0,53.138126
5898,53.0,53.153477
5899,53.0,53.170532
5900,53.0,53.189484
5901,52.0,53.21054
5902,53.0,53.345047
5903,58.0,53.38339
5904,55.0,52.870434
5905,53.0,52.633816
5906,49.0,52.593132
5907,52.0,52.992367
5908,53.0,53.10263
5909,53.0,53.114037
5910,53.0,53.12671
5911,56.0,53.14079
5912,55.0,52.8231
5913,50.0,52.581226
5914,52.0,52.86803
5915,53.0,52.964478
5916,55.0,52.960533
5917,49.0,52.73393
5918,53.0,53.148808
5919,53.0,53.165344
5920,53.0,53.18372
5921,54.0,53.204136
5922,53.0,53.115707
5923,54.0,53.128567
5924,53.0,53.031742
5925,54.0,53.03527
5926,55.0,52.928078
5927,49.0,52.697865
5928,53.0,53.108738
5929,53.0,53.120823
5930,53.0,53.13425
5931,54.0,53.14917
5932,57.0,53.054634
5933,49.0,52.61626
5934,54.0,53.018066
5935,53.0,52.908962
5936,53.0,52.89885
5937,53.0,52.88761
5938,53.0,52.875126
5939,53.0,52.86125
5940,54.0,52.845837
5941,55.0,52.717598
5942,51.0,52.464
5943,52.0,52.62667
5944,50.0,52.6963
5945,53.0,52.99589
5946,53.0,52.995438
5947,54.0,52.994934
5948,58.0,52.88326
5949,51.0,52.314735
5950,52.0,52.46082
5951,48.0,52.512024
5952,52.0,53.013363
5953,54.0,53.12596
5954,53.0,53.028847
5955,54.0,53.032055
5956,53.0,52.924507
5957,53.0,52.916122
5958,53.0,52.906807
5959,52.0,52.896454
5960,52.0,52.99606
5961,54.0,53.106735
5962,54.0,53.007484
5963,53.0,52.897205
5964,54.0,52.885784
5965,52.0,52.761982
5966,50.0,52.846645
5967,52.0,53.16294
5968,53.0,53.292156
5969,53.0,53.32462
5970,54.0,53.36069
5971,55.0,53.289658
5972,55.0,53.09962
5973,53.0,52.88847
5974,49.0,52.87608
5975,53.0,53.306755
5976,53.0,53.34084
5977,53.0,53.37871
5978,54.0,53.42079
5979,53.0,53.356434
5980,54.0,53.396038
5981,57.0,53.32893
5982,49.0,52.921036
5983,54.0,53.356705
5984,53.0,53.28523
5985,53.0,53.31692
5986,53.0,53.35214
5987,53.0,53.391266
5988,53.0,53.434742
5989,54.0,53.483047
5990,53.0,53.42561
5991,54.0,53.4729
5992,55.0,53.414333
5993,58.0,53.23815
5994,53.0,52.70906
5995,52.0,52.676735
5996,48.0,52.751926
5997,58.0,53.279922
5998,50.0,52.75547
5999,53.0,53.061634
6000,53.0,53.068485
6001,54.0,53.076096
6002,55.0,52.97344
6003,53.0,52.748264
6004,49.0,52.720295
6005,54.0,53.13366
6006,53.0,53.0374
6007,53.0,53.041557
6008,53.0,53.046177
6009,53.0,53.05131
6010,53.0,53.057014
6011,53.0,53.06335
6012,53.0,53.070393
6013,54.0,53.078217
6014,52.0,52.975796
6015,53.0,53.084217
6016,53.0,53.09358
6017,53.0,53.103977
6018,53.0,53.115532
6019,54.0,53.128372
6020,54.0,53.031525
6021,53.0,52.923916
6022,53.0,52.915466
6023,53.0,52.906075
6024,54.0,52.89564
6025,53.0,52.772934
6026,53.0,52.747707
6027,53.0,52.719677
6028,53.0,52.688534
6029,53.0,52.65393
6030,53.0,52.615482
6031,50.0,52.57276
6032,55.0,52.858627
6033,52.0,52.620697
6034,48.0,52.689663
6035,54.0,53.21074
6036,53.0,53.123043
6037,55.0,53.136715
6038,55.0,52.929684
6039,53.0,52.69965
6040,52.0,52.66628
6041,48.0,52.74031
6042,53.0,53.267014
6043,54.0,53.296684
6044,53.0,53.218536
6045,53.0,53.24282
6046,58.0,53.269802
6047,48.0,52.74423
6048,53.0,53.271366
6049,53.0,53.30152
6050,53.0,53.335026
6051,53.0,53.372253
6052,54.0,53.413616
6053,56.0,53.34846
6054,52.0,53.05385
6055,53.0,53.170944
6056,53.0,53.18994
6057,53.0,53.21105
6058,54.0,53.2345
6059,53.0,53.149445
6060,54.0,53.166054
6061,53.0,53.07339
6062,59.0,53.081547
6063,51.0,52.42394
6064,48.0,52.582157
6065,53.0,53.09129
6066,53.0,53.101437
6067,53.0,53.11271
6068,52.0,53.125237
6069,55.0,53.250263
6070,51.0,53.05585
6071,53.0,53.284283
6072,53.0,53.315872
6073,54.0,53.35097
6074,53.0,53.27886
6075,53.0,53.309845
6076,54.0,53.344273
6077,53.0,53.27141
6078,53.0,53.30157
6079,52.0,53.33508
6080,54.0,53.48342
6081,53.0,53.426025
6082,56.0,53.473366
6083,55.0,53.19263
6084,54.0,52.991814
6085,54.0,52.87979
6086,48.0,52.755325
6087,54.0,53.283695
6088,53.0,53.204105
6089,54.0,53.226788
6090,54.0,53.140877
6091,53.0,53.045418
6092,58.0,53.05047
6093,53.0,52.500523
6094,48.0,52.445026
6095,55.0,52.93892
6096,49.0,52.70991
6097,53.0,53.122124
6098,53.0,53.135696
6099,53.0,53.150776
6100,53.0,53.16753
6101,58.0,53.186146
6102,48.0,52.651276
6103,53.0,53.168087
6104,53.0,53.186768
6105,53.0,53.207523
6106,54.0,53.230583
6107,53.0,53.145092
6108,53.0,53.161217
6109,53.0,53.17913
6110,54.0,53.199036
6111,57.0,53.11004
6112,48.0,52.677822
6113,53.0,53.197582
6114,53.0,53.21954
6115,54.0,53.243935
6116,53.0,53.159927
6117,58.0,53.1777
6118,48.0,52.64189
6119,53.0,53.157658
6120,54.0,53.17518
6121,53.0,53.08353
6122,57.0,53.092815
6123,53.0,52.658684
6124,48.0,52.62076
6125,53.0,53.134182
6126,53.0,53.149094
6127,59.0,53.16566
6128,54.0,52.517403
6129,53.0,52.35267
6130,48.0,52.280746
6131,50.0,52.756386
6132,53.0,53.062653
6133,57.0,53.069614
6134,48.0,52.632904
6135,53.0,53.147675
6136,52.0,53.164085
6137,54.0,53.29343
6138,53.0,53.214924
6139,54.0,53.238808
6140,53.0,53.154232
6141,53.0,53.17137
6142,54.0,53.190414
6143,54.0,53.10046
6144,53.0,53.00051
6145,52.0,53.00057
6146,53.0,53.111744
6147,54.0,53.12416
6148,53.0,53.026844
6149,58.0,53.02983
6150,48.0,52.477592
6151,53.0,52.975105
6152,56.0,52.97234
6153,53.0,52.635937
6154,47.0,52.595486
6155,54.0,53.217205
6156,53.0,53.130226
6157,53.0,53.1447
6158,54.0,53.160778
6159,53.0,53.06753
6160,57.0,53.07504
6161,49.0,52.63893
6162,53.0,53.043255
6163,53.0,53.04806
6164,53.0,53.053406
6165,55.0,53.05934
6166,49.0,52.843716
6167,53.0,53.270794
6168,53.0,53.300884
6169,53.0,53.33432
6170,53.0,53.371468
6171,53.0,53.412743
6172,58.0,53.458607
6173,53.0,52.95401
6174,53.0,52.948902
6175,49.0,52.943226
6176,56.0,53.381363
6177,52.0,53.09041
6178,53.0,53.211567
6179,54.0,53.235077
6180,53.0,53.150085
6181,57.0,53.166763
6182,53.0,52.74085
6183,52.0,52.712055
6184,49.0,52.791172
6185,53.0,53.212414
