no,raw,smooth
0,50.0,49.72168
1,50.0,49.690758
2,50.0,49.6564
3,51.0,49.61822
4,50.0,49.464695
5,50.0,49.405216
6,49.0,49.33913
7,49.0,49.376812
8,54.0,49.41868
9,49.0,48.90964
10,47.0,48.8996
11,48.0,49.11067
12,51.0,49.234077
13,48.0,49.03787
14,49.0,49.15319
15,49.0,49.17021
16,49.0,49.189125
17,49.0,49.21014
18,49.0,49.23349
19,49.0,49.259434
20,49.0,49.28826
21,50.0,49.32029
22,49.0,49.244766
23,49.0,49.27196
24,49.0,49.302177
25,49.0,49.335754
26,54.0,49.37306
27,44.0,48.858955
28,53.0,49.398838
29,47.0,48.99871
30,53.0,49.22079
31,49.0,48.80088
32,48.0,48.778755
33,44.0,48.865284
34,48.0,49.405872
35,49.0,49.562084
36,50.0,49.62454
37,49.0,49.58282
38,54.0,49.64758
39,49.0,49.163975
40,46.0,49.182194
41,48.0,49.535774
42,51.0,49.706417
43,49.0,49.562687
44,54.0,49.625206
45,46.0,49.13912
46,49.0,49.48791
47,49.0,49.54212
48,49.0,49.602356
49,50.0,49.669285
50,50.0,49.63254
51,50.0,49.63254
52,49.0,49.591713
53,49.0,49.65746
54,50.0,49.73051
55,50.0,49.70057
56,49.0,49.6673
57,50.0,49.741447
58,49.0,49.712723
59,50.0,49.791912
60,49.0,49.76879
61,54.0,49.854214
62,46.0,49.39357
63,50.0,49.770638
64,50.0,49.745155
65,49.0,49.716843
66,50.0,49.79649
67,50.0,49.77388
68,50.0,49.748756
69,51.0,49.72084
70,51.0,49.578716
71,47.0,49.4208
72,50.0,49.689777
73,50.0,49.655308
74,50.0,49.61701
75,52.0,49.574455
76,53.0,49.30495
77,48.0,48.89439
78,46.0,48.99377
79,45.0,49.326416
80,50.0,49.80713
81,50.0,49.7857
82,50.0,49.76189
83,49.0,49.735435
84,50.0,49.81715
85,49.0,49.796833
86,50.0,49.81715
87,49.0,49.796833
88,50.0,49.88537
89,50.0,49.872635
90,50.0,49.858486
91,50.0,49.842762
92,50.0,49.825294
93,50.0,49.805885
94,54.0,49.784317
95,49.0,49.315907
96,45.0,49.351006
97,50.0,49.834454
98,50.0,49.81606
99,50.0,49.795624
100,50.0,49.772915
101,51.0,49.747684
102,54.0,49.608543
103,48.0,49.120605
104,45.0,49.24512
105,50.0,49.716805
106,49.0,49.68534
107,50.0,49.76149
108,50.0,49.73499
109,50.0,49.705544
110,52.0,49.67283
111,51.0,49.414253
112,45.0,49.238064
113,50.0,49.70896
114,49.0,49.676624
115,50.0,49.751804
116,50.0,49.724228
117,50.0,49.69359
118,50.0,49.659542
119,49.0,49.621716
120,50.0,49.690796
121,50.0,49.65644
122,55.0,49.61827
123,51.0,49.0203
124,51.0,49.0203
125,49.0,48.80034
126,45.0,48.778152
127,48.0,49.19795
128,51.0,49.331055
129,44.0,49.14562
130,44.0,49.14562
131,50.0,49.717354
132,50.0,49.68595
133,50.0,49.65106
134,53.0,49.61229
135,49.0,49.235878
136,46.0,49.262085
137,50.0,49.624542
138,50.0,49.582825
139,50.0,49.536472
140,50.0,49.48497
141,49.0,49.427746
142,50.0,49.475273
143,50.0,49.416973
144,50.0,49.352192
145,47.0,49.280216
146,48.0,49.533573
147,50.0,49.70397
148,50.0,49.67108
149,50.0,49.634537
150,50.0,49.59393
151,50.0,49.548813
152,50.0,49.498684
153,50.0,49.442986
154,50.0,49.381096
155,50.0,49.31233
156,49.0,49.23592
157,49.0,49.262135
158,49.0,49.29126
159,50.0,49.32362
160,49.0,49.248466
161,51.0,49.276073
162,44.0,49.08453
163,49.0,49.64948
164,54.0,49.72164
165,49.0,49.24627
166,45.0,49.273632
167,51.0,49.74848
168,50.0,49.60943
169,54.0,49.566032
170,49.0,49.073368
171,49.0,49.08152
172,45.0,49.090576
173,48.0,49.545086
174,50.0,49.716763
175,50.0,49.685295
176,49.0,49.65033
177,51.0,49.722588
178,48.0,49.580654
179,50.0,49.756287
180,50.0,49.72921
181,50.0,49.699123
182,49.0,49.665695
183,50.0,49.739662
184,49.0,49.71074
185,50.0,49.78971
186,50.0,49.766346
187,50.0,49.740387
188,50.0,49.711544
189,50.0,49.679493
190,49.0,49.643883
191,50.0,49.715424
192,50.0,49.683804
193,49.0,49.648674
194,50.0,49.72075
195,50.0,49.689724
196,45.0,49.65525
197,50.0,50.1725
198,50.0,50.19167
199,50.0,50.212967
200,51.0,50.23663
201,51.0,50.151814
202,51.0,50.057575
203,50.0,49.952866
204,50.0,49.947628
205,50.0,49.94181
206,50.0,49.935345
207,51.0,49.92816
208,51.0,49.80907
209,50.0,49.67675
210,53.0,49.640835
211,46.0,49.267597
212,51.0,49.63067
213,51.0,49.478523
214,55.0,49.309475
215,50.0,48.677197
216,48.0,48.53022
217,45.0,48.589134
218,50.0,48.98793
219,49.0,48.87548
220,50.0,48.861645
221,50.0,48.73516
222,49.0,48.594624
223,49.0,48.549583
224,53.0,48.49954
225,47.0,47.99949
226,47.0,48.110542
227,44.0,48.233936
228,49.0,48.704372
229,50.0,48.671524
230,49.0,48.52392
231,49.0,48.47102
232,48.0,48.412243
233,48.0,48.45805
234,49.0,48.508945
235,49.0,48.454384
236,49.0,48.454384
237,49.0,48.39376
238,49.0,48.3264
239,49.0,48.251556
240,49.0,48.168396
241,49.0,48.075996
242,48.0,47.973328
243,49.0,47.970367
244,48.0,47.855965
245,48.0,47.839962
246,49.0,47.82218
247,48.0,47.69131
248,48.0,47.657013
249,47.0,47.618904
250,48.0,47.68767
251,48.0,47.65297
252,47.0,47.61441
253,48.0,47.68268
254,48.0,47.647423
255,50.0,47.60825
256,47.0,47.3425
257,46.0,47.380554
258,48.0,47.53395
259,52.0,47.48217
260,46.0,46.98019
261,46.0,47.089104
262,43.0,47.210117
263,48.0,47.67791
264,48.0,47.642124
265,47.0,47.602364
266,47.0,47.669292
267,48.0,47.74366
268,48.0,47.71518
269,48.0,47.683537
270,48.0,47.648376
271,48.0,47.60931
272,48.0,47.565903
273,49.0,47.51767
274,47.0,47.352966
275,48.0,47.392185
276,51.0,47.324654
277,43.0,46.916283
278,47.0,47.351425
279,48.0,47.390472
280,47.0,47.32275
281,47.0,47.358612
282,47.0,47.398457
283,48.0,47.44273
284,47.0,47.380814
285,50.0,47.423126
286,47.0,47.136806
287,45.0,47.152008
288,48.0,47.39112
289,50.0,47.32347
290,46.0,47.02608
291,46.0,47.14009
292,51.0,47.26677
293,41.0,46.85197
294,47.0,47.502193
295,48.0,47.557995
296,47.0,47.508884
297,47.0,47.565426
298,48.0,47.62825
299,47.0,47.58695
300,47.0,47.652164
301,47.0,47.72463
302,47.0,47.80514
303,49.0,47.8946
304,52.0,47.77178
305,49.0,47.301975
306,45.0,47.113304
307,43.0,47.348118
308,48.0,47.831245
309,48.0,47.812496
310,48.0,47.791664
311,49.0,47.768517
312,48.0,47.631683
313,48.0,47.59076
314,47.0,47.54529
315,50.0,47.60588
316,47.0,47.339867
317,46.0,47.37763
318,48.0,47.5307
319,48.0,47.478558
320,48.0,47.42062
321,50.0,47.356247
322,46.0,47.062496
323,47.0,47.180553
324,47.0,47.200615
325,47.0,47.222904
326,44.0,47.247673
327,47.0,47.608524
328,48.0,47.67614
329,47.0,47.640156
330,47.0,47.711285
331,48.0,47.790318
332,47.0,47.76702
333,47.0,47.852245
334,47.0,47.94694
335,47.0,48.05216
336,47.0,48.169067
337,53.0,48.298965
338,45.0,47.77663
339,48.0,48.085148
340,48.0,48.094612
341,51.0,48.105125
342,43.0,47.783474
343,49.0,48.314972
344,48.0,48.238857
345,49.0,48.2654
346,47.0,48.183777
347,48.0,48.315308
348,49.0,48.350346
349,51.0,48.27816
350,48.0,47.975735
351,45.0,47.97304
352,44.0,48.30338
353,53.0,48.781532
354,46.0,48.312817
355,48.0,48.5698
356,48.0,48.633114
357,53.0,48.70346
358,47.0,48.22607
359,47.0,48.3623
360,49.0,48.513668
361,49.0,48.459633
362,47.0,48.399593
363,48.0,48.555103
364,48.0,48.616783
365,49.0,48.685318
366,48.0,48.650352
367,48.0,48.72262
368,48.0,48.80291
369,54.0,48.892124
370,54.0,48.892124
371,44.0,48.32458
372,49.0,48.805088
373,48.0,48.783432
374,49.0,48.870483
375,48.0,48.856094
376,49.0,48.951218
377,53.0,48.945797
378,48.0,48.49533
379,44.0,48.55037
380,48.0,49.055965
381,50.0,49.173298
382,49.0,49.081444
383,49.0,49.090492
384,49.0,49.090492
385,48.0,49.100548
386,50.0,49.22283
387,54.0,49.136482
388,43.0,48.596092
389,49.0,49.217884
390,49.0,49.242092
391,50.0,49.26899
392,49.0,49.187767
393,48.0,49.20863
394,49.0,49.342926
395,54.0,49.381027
396,51.0,48.86781
397,49.0,48.6309
398,44.0,48.58989
399,48.0,49.099876
400,49.0,49.222088
401,49.0,49.246765
402,49.0,49.27418
403,53.0,49.304646
404,45.0,48.894054
405,49.0,49.32673
406,49.0,49.363033
407,50.0,49.40337
408,55.0,49.33708
409,45.0,48.707867
410,45.0,49.119854
411,49.0,49.577618
412,50.0,49.641796
413,50.0,49.601997
414,50.0,49.557777
415,49.0,49.508644
416,49.0,49.56516
417,49.0,49.627953
418,49.0,49.697723
419,53.0,49.77525
420,45.0,49.416946
421,50.0,49.90772
422,49.0,49.897465
423,50.0,49.997185
424,54.0,49.996872
425,48.0,49.55208
426,50.0,49.724533
427,50.0,49.693928
428,49.0,49.65992
429,49.0,49.733246
430,49.0,49.814716
431,50.0,49.90524
432,50.0,49.89471
433,50.0,49.883015
434,50.0,49.870018
435,54.0,49.855576
436,45.0,49.395084
437,50.0,49.883427
438,54.0,49.870476
439,50.0,49.41164
440,50.0,49.346268
441,48.0,49.273632
442,49.0,49.41515
443,45.0,49.461277
444,50.0,49.956974
445,50.0,49.952194
446,51.0,49.946884
447,49.0,49.829876
448,50.0,49.922085
449,50.0,49.91343
450,50.0,49.903812
451,53.0,49.893127
452,46.0,49.54792
453,50.0,49.942135
454,50.0,49.935707
455,49.0,49.928566
456,50.0,50.03174
457,51.0,50.035267
458,48.0,49.928078
459,50.0,50.14231
460,51.0,50.158127
461,50.0,50.06459
462,50.0,50.07177
463,50.0,50.079746
464,50.0,50.088608
465,50.0,50.098454
466,51.0,50.109394
467,54.0,50.01044
468,50.0,49.567158
469,51.0,49.519066
470,47.0,49.35452
471,48.0,49.61613
472,50.0,49.795704
473,54.0,49.773006
474,45.0,49.30334
475,50.0,49.78149
476,50.0,49.757214
477,49.0,49.73024
478,50.0,49.81138
479,50.0,49.79042
480,50.0,49.767136
481,50.0,49.741264
482,50.0,49.712517
483,51.0,49.680576
484,52.0,49.533978
485,53.0,49.259975
486,48.0,48.84442
487,47.0,48.938248
488,48.0,49.15361
489,51.0,49.28179
490,48.0,49.09088
491,49.0,49.212093
492,49.0,49.23566
493,49.0,49.261845
494,49.0,49.29094
495,49.0,49.29094
496,49.0,49.323265
497,50.0,49.359184
498,49.0,49.287983
499,50.0,49.31998
500,51.0,49.244423
501,48.0,49.049362
502,48.0,49.16596
503,50.0,49.295513
504,49.0,49.21724
505,50.0,49.24138
506,51.0,49.15709
507,49.0,48.952324
508,50.0,48.947025
509,50.0,48.83003
510,49.0,48.70003
511,50.0,48.666702
512,49.0,48.51856
513,49.0,48.465065
514,49.0,48.40563
515,49.0,48.33959
516,49.0,48.26621
517,48.0,48.184677
518,50.0,48.2052
519,49.0,48.00578
520,49.0,47.89531
521,50.0,47.772564
522,49.0,47.525074
523,51.0,47.36119
524,48.0,46.956882
525,49.0,46.840984
526,48.0,46.601093
527,49.0,46.44566
528,49.0,46.161842
529,49.0,45.84649
530,53.0,45.496098
531,47.0,44.66233
532,44.0,44.40259
533,40.0,44.447323
534,44.0,44.94147
535,47.0,45.046078
536,46.0,44.828976
537,46.0,44.698864
538,46.0,44.554295
539,50.0,44.39366
540,40.0,43.770737
541,45.0,44.18971
542,44.0,44.099678
543,43.0,44.110752
544,44.0,44.23417
545,44.0,44.26019
546,43.0,44.289097
547,44.0,44.43233
548,42.0,44.480366
549,42.0,44.755962
550,42.0,45.06218
551,42.0,45.402424
552,42.0,45.78047
553,42.0,46.200523
554,43.0,46.667248
555,44.0,47.074722
556,42.0,47.41636
557,42.0,48.018177
558,43.0,48.686863
559,43.0,49.31874
560,46.0,50.020824
561,42.0,50.467587
562,40.0,51.408432
563,43.0,52.676037
564,42.0,53.751156
565,43.0,55.05684
566,43.0,56.396492
567,44.0,57.884995
568,42.0,59.427773
569,43.0,61.364193
570,43.0,63.40466
571,43.0,65.671844
572,43.0,68.19094
573,43.0,70.98994
574,46.0,74.09993
575,47.0,77.222145
576,43.0,80.58017
577,43.0,84.755745
578,38.0,89.39527
579,45.0,95.10586
580,43.0,100.67318
581,44.0,107.08131
582,44.0,114.09034
583,43.0,121.87816
584,44.0,130.6424
585,43.0,140.26933
586,44.0,151.07704
587,44.0,162.9745
588,47.0,176.19391
589,47.0,190.5488
590,140.0,206.49867
591,255.0,213.88742
592,268.0,209.31937
593,265.0,202.7993
594,266.0,195.88812
595,242.0,188.09792
596,243.0,182.1088
597,237.0,175.34311
598,221.0,168.49236
599,217.0,162.65817
600,220.0,156.6202
601,221.0,149.578
602,224.0,141.64223
603,228.0,132.49136
604,227.0,121.8793
605,204.0,110.19923
606,200.0,99.77692
607,245.0,88.64102
608,207.0,71.26781
609,185.0,56.18646
610,44.0,41.873844
611,42.0,41.637604
612,43.0,41.597336
613,42.0,41.441486
614,41.0,41.37943
615,42.0,41.42159
616,41.0,41.357323
617,41.0,41.39703
618,42.0,41.441147
619,47.0,41.37905
620,36.0,40.7545
621,34.0,41.282784
622,35.0,42.09198
623,39.0,42.87998
624,40.0,43.311085
625,40.0,43.678986
626,41.0,44.08776
627,37.0,44.430847
628,39.0,45.256496
629,39.0,45.95166
630,40.0,46.724068
631,40.0,47.471188
632,40.0,48.301323
633,40.0,49.223694
634,40.0,50.24855
635,40.0,51.38728
636,39.0,52.652534
637,40.0,54.169483
638,40.0,54.169483
639,40.0,55.743874
640,39.0,57.493195
641,41.0,59.547993
642,40.0,61.608883
643,42.0,64.00987
644,38.0,66.455414
645,40.0,69.61713
646,39.0,72.90792
647,39.0,76.67547
648,40.0,80.86163
649,39.0,85.40182
650,44.0,90.55758
651,39.0,95.730644
652,33.0,102.03405
653,33.0,102.03405
654,42.0,109.7045
655,34.0,117.22723
656,39.0,126.47469
657,38.0,136.1941
658,38.0,147.10457
659,38.0,159.2273
660,180.0,172.69699
661,177.0,171.88554
662,179.0,171.31728
663,185.0,170.46365
664,178.0,168.84851
665,179.0,167.83168
666,176.0,166.59077
667,178.0,165.5453
668,176.0,164.16145
669,170.0,162.84605
670,177.0,162.05118
671,177.0,160.3902
672,163.0,158.54468
673,166.0,158.04964
674,155.0,157.16626
675,163.0,157.40697
676,172.0,156.78552
677,158.0,155.09503
678,121.0,154.77226
679,161.0,158.52473
680,148.0,158.2497
681,161.0,159.38855
682,162.0,159.2095
683,146.0,158.89946
684,165.0,160.33273
685,136.0,159.81415
686,164.0,162.46016
687,154.0,162.28908
688,160.0,163.2101
689,160.0,163.56677
690,161.0,163.96309
691,151.0,164.29231
692,162.0,165.76924
693,169.0,166.18805
694,159.0,165.87563
695,167.0,166.6396
696,166.0,166.59956
697,163.0,166.66618
698,165.0,167.07353
699,168.0,167.30392
700,162.0,167.22658
701,168.0,167.80731
702,164.0,167.7859
703,161.0,168.20657
704,166.0,169.0073
705,165.0,169.34143
706,164.0,169.82382
707,164.0,170.47093
708,168.0,171.18994
709,168.0,171.54439
710,172.0,171.9382
711,175.0,171.93135
712,173.0,171.5904
713,175.0,171.43378
714,171.0,171.03754
715,167.0,171.0417
716,170.0,171.49078
717,174.0,171.65643
718,173.0,171.39604
719,174.0,171.21782
720,173.0,170.9087
721,174.0,170.67635
722,171.0,170.30707
723,171.0,170.23007
724,170.0,170.14452
725,172.0,170.16058
726,162.0,169.9562
727,156.0,170.84024
728,173.0,172.48915
729,160.0,172.43239
730,171.0,173.81377
731,170.0,174.1264
732,174.0,174.5849
733,170.0,174.6499
734,165.0,175.16656
735,164.0,176.29619
736,176.0,177.66245
737,175.0,177.84715
738,175.0,178.16351
739,172.0,178.51501
740,174.0,179.2389
741,177.0,179.82101
742,178.0,180.13446
743,173.0,180.37163
744,176.0,181.1907
745,175.0,181.76744
746,176.0,182.51938
747,177.0,183.24374
748,178.0,183.9375
749,179.0,184.59723
750,179.0,185.21915
751,180.0,185.91017
752,181.0,186.56686
753,184.0,187.1854
754,187.0,187.53934
755,186.0,187.59927
756,185.0,187.77696
757,188.0,188.08553
758,180.0,188.09503
759,181.0,188.99449
760,176.0,189.88277
761,178.0,191.4253
762,183.0,192.91699
763,191.0,194.01889
764,190.0,194.35432
765,191.0,194.83815
766,186.0,195.2646
767,186.0,196.294
768,185.0,197.43779
769,196.0,198.81978
770,194.0,199.13309
771,196.0,199.70345
772,192.0,200.11494
773,192.0,201.01662
774,198.0,201.01662
775,196.0,201.3518
776,197.0,201.94646
777,197.0,202.49608
778,200.0,203.10677
779,202.0,203.45197
780,201.0,203.61331
781,203.0,203.90367
782,201.0,204.00409
783,202.0,204.33788
784,203.0,204.59764
785,200.0,204.77516
786,205.0,205.30574
787,201.0,205.33972
788,205.0,205.82191
789,206.0,205.91324
790,203.0,205.9036
791,204.0,206.22621
792,203.0,206.47359
793,205.0,206.85954
794,204.0,207.06616
795,202.0,207.40686
796,201.0,208.00763
797,202.0,208.78625
798,202.0,209.5403
799,200.0,210.37811
800,208.0,211.53123
801,208.0,211.9236
802,207.0,212.35956
803,207.0,212.95508
804,209.0,213.61676
805,210.0,214.12975
806,208.0,214.58861
807,214.0,215.32068
808,214.0,215.46744
809,215.0,215.6305
810,214.0,215.70055
811,216.0,215.88951
812,212.0,215.87723
813,214.0,216.30804
814,215.0,216.5645
815,215.0,216.73834
816,213.0,216.9315
817,216.0,217.36835
818,216.0,217.52039
819,216.0,217.68932
820,216.0,217.87701
821,217.0,218.08557
822,212.0,218.2062
823,213.0,218.8958
824,217.0,219.55089
825,213.0,219.83434
826,216.0,220.5937
827,215.0,221.10411
828,218.0,221.78235
829,217.0,222.2026
830,219.0,222.78069
831,223.0,223.20078
832,218.0,223.22308
833,223.0,223.80342
834,221.0,223.8927
835,225.0,224.21411
836,225.0,224.1268
837,225.0,224.02979
838,227.0,223.922
839,223.0,223.58
840,228.0,223.64445
841,227.0,223.1605
842,224.0,222.7339
843,227.0,222.59323
844,226.0,222.1036
845,222.0,221.67067
846,218.0,221.6341
847,225.0,222.03789
848,226.0,221.70877
849,223.0,221.23196
850,225.0,221.03552
851,216.0,220.59503
852,223.0,221.10559
853,220.0,220.8951
854,219.0,220.99455
855,219.0,221.21619
856,218.0,221.46245
857,222.0,221.84717
858,218.0,221.8302
859,220.0,222.25578
860,221.0,222.50644
861,220.0,222.67381
862,222.0,222.97092
863,220.0,223.07881
864,221.0,223.42091
865,221.0,223.68991
866,219.0,223.98878
867,220.0,224.5431
868,221.0,225.0479
869,224.0,225.49767
870,225.0,225.6641
871,223.0,225.73788
872,227.0,226.0421
873,224.0,225.93567
874,224.0,226.15076
875,227.0,226.38974
876,227.0,226.32195
877,226.0,226.24661
878,229.0,226.27402
879,228.0,225.97115
880,225.0,225.74573
881,228.0,225.8286
882,229.0,225.58734
883,230.0,225.20818
884,227.0,224.67575
885,228.0,224.41751
886,230.0,224.01945
887,220.0,223.35495
888,225.0,223.72772
889,219.0,223.58636
890,223.0,224.09598
891,231.0,224.21776
892,233.0,223.46417
893,218.0,222.40463
894,218.0,222.89404
895,235.0,223.43782
896,220.0,222.15314
897,227.0,222.39238
898,227.0,221.88043
899,226.0,221.3116
900,218.0,220.79066
901,219.0,221.10074
902,220.0,221.33417
903,222.0,221.4824
904,222.0,221.4824
905,233.0,221.42491
906,219.0,220.1388
907,226.0,220.26534
908,205.0,219.62814
909,212.0,221.2535
910,206.0,222.28166
911,214.0,224.09073
912,214.0,225.21193
913,224.0,226.45772
914,206.0,226.7308
915,218.0,229.03423
916,233.0,230.26025
917,221.0,229.95584
918,230.0,230.95093
919,223.0,231.0566
920,220.0,231.95178
921,221.0,233.27977
922,220.0,234.64418
923,225.0,236.27132
924,227.0,237.5237
925,231.0,238.69301
926,231.0,239.54779
927,230.0,239.54779
928,231.0,240.60866
929,230.0,241.67628
930,219.0,242.97365
931,227.0,245.6374
932,237.0,247.70824
933,235.0,248.89806
934,240.0,250.44229
935,237.0,251.60255
936,245.0,253.22507
937,242.0,254.13896
938,242.0,255.48775
939,246.0,256.9864
940,252.0,258.2071
941,251.0,258.89676
942,246.0,259.77417
943,253.0,261.30463
944,253.0,262.2274
945,248.0,263.25266
946,258.0,264.94742
947,259.0,265.71936
948,258.0,266.46597
949,258.0,267.40665
950,256.0,268.45184
951,260.0,269.8354
952,259.0,270.9282
953,262.0,272.25354
954,261.0,273.39282
955,265.0,274.7698
956,258.0,275.85535
957,269.0,277.8393
958,269.0,278.82144
959,268.0,279.91272
960,271.0,281.23636
961,272.0,282.37375
962,276.0,283.5264
963,273.0,284.36267
964,273.0,285.6252
965,273.0,287.02805
966,276.0,288.58673
967,280.0,289.98526
968,282.0,291.09473
969,285.0,292.10526
970,285.0,292.89474
971,284.0,293.77194
972,284.0,294.85773
973,279.0,296.06415
974,287.0,297.96017
975,291.0,299.17798
976,292.0,300.08664
977,289.0,300.98514
978,295.0,302.31683
979,294.0,303.12982
980,295.0,304.14426
981,297.0,305.16028
982,286.0,306.067
983,299.0,308.29666
984,300.0,309.32965
985,300.0,310.3663
986,302.0,311.51813
987,303.0,312.57568
988,304.0,313.63968
989,304.0,314.71075
990,306.0,315.90085
991,304.0,317.00095
992,309.0,318.44553
993,310.0,319.49506
994,311.0,320.55008
995,313.0,321.6112
996,316.0,322.56802
997,316.0,323.29782
998,318.0,324.1087
999,318.0,324.78748
1000,319.0,325.54166
1001,319.0,326.26852
1002,323.0,327.07614
1003,325.0,327.52905
1004,321.0,327.81006
1005,326.0,328.56674
1006,328.0,328.85193
1007,328.0,328.9466
1008,319.0,329.0518
1009,329.0,330.16867
1010,329.0,330.29852
1011,330.0,330.4428
1012,330.0,330.49203
1013,330.0,330.54672
1014,332.0,330.60748
1015,332.0,330.45276
1016,333.0,330.28085
1017,324.0,329.97876
1018,330.0,330.64307
1019,332.0,330.71454
1020,332.0,330.57172
1021,332.0,330.41302
1022,331.0,330.2367
1023,332.0,330.1519
1024,331.0,329.94653
1025,330.0,329.8295
1026,331.0,329.81058
1027,332.0,329.67844
1028,332.0,329.42047
1029,332.0,329.13385
1030,332.0,328.8154
1031,327.0,328.46155
1032,331.0,328.62393
1033,330.0,328.35992
1034,329.0,328.1777
1035,331.0,328.08636
1036,327.0,327.76263
1037,330.0,327.84738
1038,329.0,327.60822
1039,330.0,327.45358
1040,329.0,327.17065
1041,329.0,326.9674
1042,328.0,326.74158
1043,322.0,326.60178
1044,327.0,327.11307
1045,324.0,327.1256
1046,329.0,327.4729
1047,330.0,327.30322
1048,327.0,327.0036
1049,330.0,327.004
1050,332.0,326.6711
1051,329.0,326.079
1052,321.0,325.7545
1053,327.0,326.28278
1054,317.0,326.2031
1055,326.0,327.22565
1056,330.0,327.36185
1057,329.0,327.06873
1058,329.0,326.85416
1059,332.0,326.61575
1060,322.0,326.0175
1061,324.0,326.46387
1062,327.0,326.73764
1063,330.0,326.7085
1064,335.0,326.34277
1065,330.0,325.38086
1066,327.0,324.86765
1067,325.0,324.6307
1068,329.0,324.5897
1069,326.0,324.09967
1070,325.0,323.88852
1071,328.0,323.76505
1072,324.0,323.29453
1073,324.0,323.21616
1074,325.0,323.1291
1075,326.0,322.9212
1076,326.0,322.5791
1077,321.0,322.199
1078,321.0,322.33224
1079,326.0,322.4803
1080,325.0,322.0892
1081,324.0,321.76578
1082,323.0,321.51755
1083,322.0,321.35284
1084,324.0,321.28094
1085,323.0,320.97885
1086,321.0,320.7543
1087,321.0,320.72702
1088,323.0,320.6967
1089,323.0,320.4408
1090,322.0,320.15646
1091,322.0,319.95163
1092,323.0,319.72403
1093,323.0,319.36005
1094,319.0,318.95563
1095,322.0,318.9507
1096,322.0,318.9507
1097,324.0,318.6119
1098,324.0,318.01324
1099,321.0,317.34805
1100,317.0,316.9423
1101,320.0,316.93588
1102,320.0,316.59543
1103,320.0,316.21716
1104,316.0,315.79684
1105,318.0,315.77426
1106,319.0,315.52698
1107,319.0,315.1411
1108,314.0,314.71237
1109,316.0,314.79153
1110,315.0,314.65726
1111,316.0,314.61917
1112,317.0,314.46576
1113,317.0,314.18417
1114,309.0,313.8713
1115,318.0,314.41257
1116,316.0,314.01398
1117,314.0,313.7933
1118,319.0,313.77036
1119,318.0,313.1893
1120,315.0,312.65482
1121,317.0,312.39426
1122,316.0,311.8825
1123,312.0,311.42502
1124,315.0,311.3611
1125,312.0,310.95682
1126,310.0,310.8409
1127,317.0,310.93436
1128,314.0,310.26038
1129,311.0,309.84488
1130,311.0,309.71652
1131,308.0,309.5739
1132,318.0,309.7488
1133,319.0,308.83203
1134,316.0,307.70227
1135,316.0,306.7803
1136,313.0,305.7559
1137,310.0,304.95102
1138,307.0,304.39005
1139,308.0,304.10004
1140,307.0,303.66672
1141,306.0,303.29636
1142,307.0,302.99594
1143,303.0,302.55103
1144,304.0,302.50116
1145,301.0,302.33463
1146,302.0,302.4829
1147,299.0,302.53656
1148,303.0,302.92953
1149,301.0,302.92172
1150,304.0,303.13525
1151,305.0,303.03918
1152,305.0,302.82132
1153,304.0,302.57925
1154,303.0,302.42142
1155,300.0,302.35715
1156,303.0,302.61905
1157,305.0,302.57675
1158,304.0,302.3075
1159,305.0,302.11945
1160,305.0,301.79938
1161,305.0,301.44376
1162,305.0,301.0486
1163,304.0,300.6096
1164,303.0,300.23288
1165,299.0,299.92545
1166,298.0,300.0283
1167,293.0,300.25366
1168,295.0,301.05963
1169,298.0,301.73294
1170,299.0,302.14774
1171,303.0,302.4975
1172,300.0,302.44168
1173,297.0,302.71298
1174,299.0,303.34775
1175,294.0,303.83084
1176,305.0,304.92316
1177,302.0,304.9146
1178,295.0,305.23846
1179,308.0,306.37607
1180,312.0,306.19565
1181,312.0,305.55072
1182,304.0,304.83414
1183,313.0,304.92682
1184,311.0,304.02982
1185,313.0,303.25534
1186,311.0,302.17264
1187,310.0,301.19183
1188,309.0,300.21317
1189,309.0,299.23688
1190,299.0,298.1521
1191,306.0,298.0579
1192,306.0,297.17545
1193,301.0,296.19495
1194,299.0,295.66104
1195,295.0,295.29007
1196,298.0,295.3223
1197,296.0,295.0248
1198,297.0,294.91647
1199,291.0,294.68497
1200,298.0,295.09442
1201,298.0,294.7716
1202,301.0,294.41293
1203,297.0,293.68103
1204,302.0,293.31226
1205,298.0,292.34695
1206,301.0,291.71887
1207,300.0,290.68765
1208,298.0,289.65295
1209,288.0,288.72552
1210,291.0,288.80615
1211,298.0,288.5624
1212,295.0,287.5138
1213,292.0,286.682
1214,274.0,286.09113
1215,286.0,287.4346
1216,279.0,287.594
1217,292.0,288.5489
1218,290.0,288.16544
1219,292.0,287.9616
1220,283.0,287.5129
1221,286.0,288.01437
1222,292.0,288.2382
1223,288.0,287.8202
1224,290.0,287.80023
1225,294.0,287.55582
1226,288.0,286.8398
1227,290.0,286.71094
1228,286.0,286.3455
1229,289.0,286.38388
1230,296.0,286.0932
1231,291.0,284.99246
1232,291.0,284.32495
1233,289.0,283.58328
1234,292.0,282.98145
1235,292.0,281.97937
1236,275.0,280.86597
1237,282.0,281.51773
1238,281.0,281.46414
1239,287.0,281.51572
1240,284.0,280.90634
1241,288.0,280.5626
1242,278.0,279.73624
1243,287.0,279.92917
1244,283.0,279.14352
1245,278.0,278.71503
1246,285.0,278.7945
1247,281.0,278.10498
1248,280.0,277.78333
1249,283.0,277.53705
1250,278.0,276.93005
1251,288.0,276.8112
1252,290.0,275.568
1253,287.0,273.96445
1254,292.0,272.51605
1255,287.0,270.35117
1256,281.0,268.50128
1257,267.0,267.11255
1258,260.0,267.12506
1259,275.0,267.91675
1260,276.0,267.12973
1261,262.0,266.14417
1262,275.0,266.6046
1263,275.0,265.67178
1264,276.0,264.6353
1265,272.0,263.3726
1266,262.0,262.414
1267,270.0,262.46
1268,258.0,261.62222
1269,264.0,262.02472
1270,265.0,261.80524
1271,261.0,261.45026
1272,252.0,261.5003
1273,243.0,262.5559
1274,264.0,264.7288
1275,272.0,264.80978
1276,276.0,264.01086
1277,278.0,262.67874
1278,285.0,260.97638
1279,271.0,258.3071
1280,256.0,256.8968
1281,261.0,256.99643
1282,253.0,256.5516
1283,261.0,256.94623
1284,264.0,256.49582
1285,256.0,255.66202
1286,260.0,255.62447
1287,250.0,255.1383
1288,257.0,255.70923
1289,258.0,255.56581
1290,247.0,255.29535
1291,265.0,256.21707
1292,268.0,255.2412
1293,260.0,253.82355
1294,266.0,253.13728
1295,260.0,251.7081
1296,255.0,250.78679
1297,260.0,250.31866
1298,256.0,249.24297
1299,248.0,248.49219
1300,259.0,248.54688
1301,253.0,247.38544
1302,256.0,246.7616
1303,247.0,245.7351
1304,242.0,245.59457
1305,255.0,245.99397
1306,251.0,244.99332
1307,249.0,244.32591
1308,244.0,243.80658
1309,252.0,243.7851
1310,254.0,242.87234
1311,254.0,241.63596
1312,255.0,240.26219
1313,251.0,238.62466
1314,251.0,237.24962
1315,244.0,235.7218
1316,249.0,234.80202
1317,252.0,233.22447
1318,244.0,231.1383
1319,242.0,229.70924
1320,240.0,228.34361
1321,244.0,227.04846
1322,245.0,225.16496
1323,243.0,222.96107
1324,240.0,220.73453
1325,238.0,218.59393
1326,236.0,216.4377
1327,234.0,214.26411
1328,233.0,212.07124
1329,226.0,209.74583
1330,229.0,207.93982
1331,223.0,205.59981
1332,215.0,203.66646
1333,231.0,202.40718
1334,213.0,199.2302
1335,210.0,197.70023
1336,213.0,196.33359
1337,205.0,194.48177
1338,206.0,193.31308
1339,207.0,191.90341
1340,197.0,190.22601
1341,200.0,189.47336
1342,215.0,188.30374
1343,200.0,189.47336
1344,215.0,188.30374
1345,195.0,185.3375
1346,194.0,184.26389
1347,207.0,183.18211
1348,204.0,180.53569
1349,208.0,177.92856
1350,188.0,174.58728
1351,197.0,173.09698
1352,188.0,170.4411
1353,181.0,168.49011
1354,181.0,167.10013
1355,183.0,165.5557
1356,178.0,163.61745
1357,183.0,162.01938
1358,201.0,159.6882
1359,206.0,155.09799
1360,182.0,149.44221
1361,194.0,145.82469
1362,172.0,140.4719
1363,163.0,136.96877
1364,196.0,134.07642
1365,163.0,127.19602
1366,164.0,123.217804
1367,162.0,118.68645
1368,151.0,113.87383
1369,138.0,109.74871
1370,144.0,106.60968
1371,96.0,102.4552
1372,73.0,103.17245
1373,113.0,106.52494
1374,84.0,105.80549
1375,119.0,108.228325
1376,79.0,107.03147
1377,108.0,110.14608
1378,121.0,110.38454
1379,153.0,109.20505
1380,119.0,104.33894
1381,139.0,102.70994
1382,132.0,98.67771
1383,143.0,94.97524
1384,142.0,89.63916
1385,131.0,83.8213
1386,57.0,78.57922
1387,78.0,80.97692
1388,77.0,81.307686
1389,79.0,81.78632
1390,78.0,82.09592
1391,84.0,82.55102
1392,71.0,82.39002
1393,86.0,83.65559
1394,76.0,83.3951
1395,71.0,84.21679
1396,72.0,85.685326
1397,72.0,87.205925
1398,100.0,88.89548
1399,92.0,87.661644
1400,97.0,87.17961
1401,87.0,86.08846
1402,80.0,85.98718
1403,85.0,86.65243
1404,85.0,86.83604
1405,87.0,87.04005
1406,71.0,87.0445
1407,79.0,88.82723
1408,83.0,89.91915
1409,97.0,90.68794
1410,95.0,89.98661
1411,89.0,89.42957
1412,90.0,89.4773
1413,89.0,89.41923
1414,95.0,89.465805
1415,90.0,88.8509
1416,91.0,88.72322
1417,93.0,88.47025
1418,92.0,87.96695
1419,90.0,87.51884
1420,91.0,87.24316
1421,93.0,86.82573
1422,90.0,86.139694
1423,67.0,85.71077
1424,80.0,87.78975
1425,89.0,88.65528
1426,91.0,88.61698
1427,89.0,88.3522
1428,88.0,88.28023
1429,90.0,88.31136
1430,95.0,88.12374
1431,84.0,87.35972
1432,88.0,87.733025
1433,86.0,87.70336
1434,89.0,87.89263
1435,88.0,87.76959
1436,90.0,87.74399
1437,89.0,87.493324
1438,89.0,87.32592
1439,93.0,87.139915
1440,87.0,86.48879
1441,88.0,86.432
1442,88.0,86.257774
1443,88.0,86.06419
1444,88.0,85.849106
1445,93.0,85.610115
1446,91.0,84.78902
1447,83.0,84.098915
1448,85.0,84.221016
1449,84.0,84.13447
1450,88.0,84.14941
1451,88.0,83.72156
1452,88.0,83.24617
1453,88.0,82.717964
1454,86.0,82.13107
1455,87.0,81.701195
1456,85.0,81.11244
1457,88.0,80.6805
1458,87.0,79.86722
1459,80.0,79.07469
1460,80.0,78.97188
1461,81.0,78.85764
1462,84.0,78.619606
1463,77.0,78.02178
1464,79.0,78.13532
1465,77.0,78.039246
1466,76.0,78.154724
1467,75.0,78.39414
1468,77.0,78.77127
1469,75.0,78.96809
1470,79.0,79.40899
1471,77.0,79.45443
1472,74.0,79.72715
1473,79.0,80.3635
1474,80.0,80.515
1475,86.0,80.57222
1476,87.0,79.96914
1477,84.0,79.187935
1478,87.0,78.65326
1479,77.0,77.725845
1480,80.0,77.8065
1481,80.0,77.56278
1482,80.0,77.291985
1483,80.0,76.9911
1484,80.0,76.65678
1485,79.0,76.28531
1486,79.0,75.98367
1487,78.0,75.64853
1488,75.0,75.38725
1489,69.0,75.43028
1490,75.0,76.14476
1491,71.0,76.27196
1492,69.0,76.857735
1493,67.0,77.73082
1494,75.0,78.92314
1495,66.0,79.35905
1496,71.0,80.84339
1497,71.0,81.9371
1498,78.0,83.15234
1499,79.0,83.72482
1500,83.0,84.2498
1501,80.0,84.388664
1502,76.0,84.8763
1503,80.0,85.86256
1504,86.0,86.513954
1505,78.0,86.57106
1506,85.0,87.5234
1507,89.0,87.80378
1508,88.0,87.67087
1509,89.0,87.63429
1510,91.0,87.48255
1511,82.0,87.09173
1512,88.0,87.65748
1513,88.0,87.61942
1514,89.0,87.57713
1515,88.0,87.41904
1516,88.0,87.354485
1517,87.0,87.28276
1518,88.0,87.314186
1519,88.0,87.23798
1520,90.0,87.15331
1521,86.0,86.83701
1522,88.0,86.930016
1523,88.0,86.81113
1524,88.0,86.67903
1525,89.0,86.53226
1526,91.0,86.258064
1527,84.0,85.731186
1528,88.0,85.92354
1529,87.0,85.69282
1530,89.0,85.54758
1531,87.0,85.16397
1532,83.0,84.95998
1533,86.0,85.17775
1534,88.0,85.086395
1535,90.0,84.76266
1536,86.0,84.18073
1537,82.0,83.9786
1538,83.0,84.19845
1539,86.0,84.33161
1540,86.0,84.14624
1541,86.0,83.94027
1542,85.0,83.71141
1543,84.0,83.56824
1544,87.0,83.52026
1545,88.0,83.13363
1546,87.0,82.59292
1547,85.0,82.10325
1548,85.0,82.10325
1549,86.0,81.78139
1550,86.0,81.31266
1551,79.0,80.79185
1552,87.0,80.990944
1553,76.0,80.32328
1554,85.0,80.80365
1555,80.0,80.337395
1556,83.0,80.374886
1557,83.0,80.083206
1558,85.0,79.75912
1559,87.0,79.176796
1560,82.0,78.307556
1561,90.0,77.89729
1562,84.0,76.55255
1563,81.0,75.72506
1564,84.0,75.13896
1565,83.0,74.1544
1566,87.0,73.17156
1567,87.0,71.63507
1568,83.0,69.92786
1569,86.0,68.475395
1570,79.0,66.52822
1571,80.0,65.14247
1572,85.0,63.491634
1573,82.0,61.101818
1574,81.0,58.7798
1575,81.0,56.31089
1576,66.0,53.567654
1577,59.0,52.186283
1578,45.0,51.429203
1579,65.0,52.14356
1580,55.0,50.715065
1581,51.0,50.238964
1582,48.0,50.154408
1583,42.0,50.393787
1584,48.0,51.32643
1585,52.0,51.696037
1586,52.0,51.662266
1587,49.0,51.62474
1588,51.0,51.916378
1589,51.0,52.0182
1590,52.0,52.131336
1591,55.0,52.14593
1592,50.0,51.828815
1593,47.0,52.032017
1594,50.0,52.59113
1595,52.0,52.879032
1596,53.0,52.976704
1597,50.0,52.974117
1598,53.0,53.304577
1599,52.0,53.33842
1600,52.0,53.487133
1601,54.0,53.65237
1602,53.0,53.613743
1603,46.0,53.68194
1604,50.0,54.535492
1605,53.0,55.039436
1606,54.0,55.26604
1607,53.0,55.40671
1608,54.0,55.674126
1609,58.0,55.860138
1610,58.0,55.62238
1611,58.0,55.3582
1612,60.0,55.06467
1613,56.0,54.516304
1614,55.0,54.35145
1615,53.0,54.279392
1616,54.0,54.42155
1617,57.0,54.46839
1618,56.0,54.187103
1619,59.0,53.985672
1620,52.0,53.428524
1621,58.0,53.58725
1622,57.0,53.096947
1623,51.0,52.663277
1624,52.0,52.848087
1625,56.0,52.942318
1626,52.0,52.602577
1627,51.0,52.66953
1628,49.0,52.855034
1629,53.0,53.28337
1630,53.0,53.314857
1631,51.0,53.349842
1632,52.0,53.61094
1633,53.0,53.789932
1634,53.0,53.877705
1635,58.0,53.97523
1636,50.0,53.528038
1637,53.0,53.920044
1638,53.0,54.022274
1639,52.0,54.135864
1640,53.0,54.373184
1641,52.0,54.52576
1642,52.0,54.8064
1643,53.0,55.11822
1644,52.0,55.35358
1645,54.0,55.7262
1646,54.0,55.918
1647,56.0,56.13111
1648,56.0,56.145683
1649,55.0,56.161873
1650,55.0,56.29097
1651,60.0,56.434414
1652,55.0,56.03824
1653,54.0,56.1536
1654,56.0,56.392887
1655,53.0,56.436543
1656,55.0,56.818382
1657,56.0,57.020428
1658,55.0,57.133812
1659,56.0,57.370903
1660,56.0,57.523228
1661,55.0,57.69248
1662,56.0,57.991646
1663,56.0,58.212944
1664,55.0,58.458828
1665,56.0,58.843143
1666,55.0,59.15905
1667,55.0,59.62117
1668,55.0,60.134636
1669,60.0,60.705154
1670,63.0,60.78351
1671,59.0,60.537235
1672,56.0,60.70804
1673,56.0,61.231155
1674,58.0,61.812397
1675,56.0,62.236
1676,55.0,62.92889
1677,54.0,63.80988
1678,53.0,64.899864
1679,53.0,66.22207
1680,54.0,67.691185
1681,55.0,69.21243
1682,55.0,70.79159
1683,69.0,72.54621
1684,69.0,72.94023
1685,65.0,73.37804
1686,71.0,74.30893
1687,53.0,74.67659
1688,55.0,77.0851
1689,69.0,79.539
1690,54.0,80.71
1691,70.0,83.67778
1692,87.0,85.19753
1693,90.0,84.99726
1694,91.0,84.44141
1695,84.0,83.71268
1696,90.0,83.680756
1697,80.0,82.97862
1698,65.0,83.309586
1699,76.0,85.34399
1700,68.0,86.38221
1701,54.0,88.424675
1702,90.0,92.24964
1703,102.0,92.4996
1704,119.0,91.44401
1705,64.0,88.38223
1706,66.0,91.09137
1707,55.0,93.8793
1708,84.0,98.19923
1709,87.0,99.77692
1710,83.0,101.19658
1711,79.0,103.21842
1712,105.0,105.909355
1713,90.0,106.0104
1714,90.0,107.78934
1715,101.0,109.76593
1716,87.0,110.73993
1717,87.0,113.37771
1718,107.0,116.30857
1719,112.0,117.342865
1720,104.0,117.93652
1721,108.0,119.48503
1722,113.0,120.76115
1723,141.0,121.6235
1724,136.0,119.47056
1725,116.0,117.63396
1726,112.0,117.81551
1727,116.0,118.461685
1728,110.0,118.735214
1729,114.0,119.705795
1730,110.0,120.339775
1731,117.0,121.48864
1732,113.0,121.98738
1733,113.0,122.98598
1734,117.0,122.98598
1735,110.0,123.65109
1736,136.0,125.167885
1737,127.0,123.96432
1738,110.0,123.62702
1739,115.0,125.141136
1740,94.0,126.26793
1741,141.0,129.85326
1742,135.0,128.61473
1743,109.0,127.90526
1744,99.0,130.00584
1745,115.0,133.45094
1746,114.0,135.50105
1747,112.0,137.89006
1748,109.0,140.76674
1749,117.0,144.29639
1750,151.0,147.32933
1751,147.0,146.92148
1752,152.0,146.91277
1753,155.0,146.34752
1754,111.0,145.38614
1755,132.0,149.20682
1756,132.0,151.1187
1757,141.0,151.1187
1758,151.0,152.243
1759,146.0,152.3811
1760,141.0,153.09012
1761,153.0,154.43346
1762,138.0,154.59273
1763,159.0,156.43637
1764,166.0,156.15154
1765,158.0,155.05725
1766,156.0,154.73029
1767,113.0,154.5892
1768,136.0,159.21022
1769,148.0,161.78912
1770,151.0,163.32124
1771,148.0,164.69026
1772,152.0,166.54474
1773,152.0,168.16083
1774,164.0,169.95648
1775,166.0,170.61833
1776,172.0,171.13148
1777,166.0,171.03499
1778,170.0,171.59444
1779,163.0,171.7716
1780,159.0,172.74623
1781,171.0,174.2736
1782,169.0,174.63733
1783,169.0,175.2637
1784,172.0,175.95969
1785,171.0,176.39966
1786,167.0,176.99962
1787,168.0,178.1107
1788,176.0,179.23412
1789,177.0,179.59346
1790,179.0,179.88164
1791,177.0,179.97961
1792,185.0,180.31068
1793,184.0,179.78966
1794,183.0,179.32185
1795,186.0,178.91318
1796,189.0,178.12575
1797,180.0,176.91751
1798,173.0,176.57501
1799,160.0,176.97223
1800,180.0,178.85803
1801,186.0,178.73116
1802,188.0,177.92351
1803,176.0,176.8039
1804,185.0,176.89322
1805,169.0,175.99246
1806,154.0,176.76941
1807,183.0,179.29935
1808,172.0,178.88817
1809,176.0,179.65353
1810,183.0,180.05948
1811,168.0,179.73276
1812,181.0,181.03639
1813,191.0,181.04044
1814,178.0,179.9338
1815,166.0,180.14868
1816,183.0,181.72075
1817,175.0,181.57861
1818,172.0,182.30957
1819,163.0,183.4551
1820,184.0,185.72789
1821,176.0,185.91989
1822,188.0,187.0221
1823,176.0,186.91344
1824,190.0,188.12604
1825,192.0,187.91783
1826,183.0,187.46426
1827,185.0,187.9603
1828,184.0,188.28923
1829,189.0,188.76582
1830,180.0,188.73982
1831,175.0,189.71092
1832,189.0,191.34547
1833,181.0,191.6061
1834,189.0,192.78455
1835,181.0,193.20506
1836,181.0,194.56119
1837,193.0,196.06798
1838,189.0,196.40886
1839,197.0,197.23209
1840,189.0,197.25789
1841,191.0,198.17545
1842,180.0,198.97272
1843,195.0,201.08081
1844,193.0,201.75645
1845,201.0,202.7294
1846,202.0,202.92155
1847,200.0,203.02396
1848,206.0,203.35995
1849,198.0,203.06662
1850,203.0,203.62958
1851,197.0,203.69954
1852,204.0,204.44394
1853,199.0,204.49329
1854,203.0,205.10367
1855,207.0,205.33742
1856,204.0,205.1527
1857,191.0,205.28078
1858,204.0,206.86752
1859,209.0,207.18614
1860,207.0,206.98462
1861,207.0,206.98293
1862,203.0,206.98103
1863,202.0,207.42337
1864,207.0,208.02597
1865,209.0,208.13997
1866,202.0,208.04442
1867,207.0,208.71603
1868,211.0,208.90671
1869,209.0,208.67412
1870,210.0,208.63792
1871,211.0,208.48659
1872,209.0,208.20732
1873,208.0,208.11926
1874,207.0,208.13252
1875,210.0,208.25836
1876,209.0,208.06485
1877,206.0,207.96095
1878,205.0,208.17883
1879,207.0,208.53204
1880,208.0,208.70229
1881,209.0,208.78032
1882,210.0,208.75592
1883,204.0,208.61769
1884,201.0,209.13078
1885,210.0,210.03421
1886,211.0,210.03802
1887,209.0,209.93114
1888,209.0,210.0346
1889,208.0,210.14958
1890,205.0,210.38843
1891,207.0,210.98715
1892,213.0,211.43018
1893,210.0,211.25575
1894,209.0,211.39528
1895,214.0,211.66144
1896,215.0,211.40161
1897,211.0,211.0018
1898,212.0,211.002
1899,213.0,210.89111
1900,210.0,210.6568
1901,211.0,210.72978
1902,213.0,210.69975
1903,212.0,210.44417
1904,214.0,210.2713
1905,210.0,209.85701
1906,211.0,209.84113
1907,211.0,209.71236
1908,211.0,209.56929
1909,207.0,209.41032
1910,208.0,209.67815
1911,214.0,209.86461
1912,214.0,209.40514
1913,214.0,208.8946
1914,211.0,208.32736
1915,211.0,208.0304
1916,215.0,207.70044
1917,213.0,206.88939
1918,216.0,206.21043
1919,212.0,205.12271
1920,203.0,204.35858
1921,208.0,204.50954
1922,211.0,204.1217
1923,210.0,203.35745
1924,208.0,202.6194
1925,202.0,202.02156
1926,204.0,202.02397
1927,206.0,201.80443
1928,199.0,201.33826
1929,204.0,201.59808
1930,204.0,201.33122
1931,203.0,201.0347
1932,196.0,200.81633
1933,196.0,201.35147
1934,204.0,201.94608
1935,178.0,201.71788
1936,192.0,204.3532
1937,200.0,205.72578
1938,208.0,206.36198
1939,208.0,206.17998
1940,194.0,205.97775
1941,204.0,207.30862
1942,211.0,207.67627
1943,209.0,207.30696
1944,211.0,207.11885
1945,209.0,206.6876
1946,198.0,206.43068
1947,201.0,207.36742
1948,203.0,208.0749
1949,213.0,208.63878
1950,211.0,208.1542
1951,208.0,207.838
1952,204.0,207.81999
1953,216.0,208.24445
1954,213.0,207.38272
1955,215.0,206.75858
1956,211.0,205.84286
1957,209.0,205.26985
1958,211.0,204.85541
1959,203.0,204.17267
1960,209.0,204.30296
1961,206.0,203.78108
1962,198.0,203.53453
1963,203.0,204.14948
1964,204.0,204.27719
1965,203.0,204.308
1966,211.0,204.45334
1967,209.0,203.72594
1968,205.0,203.13994
1969,207.0,202.93327
1970,201.0,202.48143
1971,200.0,202.64603
1972,199.0,202.94003
1973,202.0,203.37782
1974,201.0,203.53093
1975,199.0,203.81215
1976,204.0,204.34685
1977,202.0,204.38539
1978,197.0,204.65044
1979,209.0,205.50049
1980,208.0,205.11166
1981,202.0,204.79074
1982,206.0,205.10083
1983,207.0,205.00092
1984,204.0,204.77881
1985,203.0,204.86536
1986,204.0,205.07262
1987,204.0,205.1918
1988,209.0,205.32423
1989,205.0,204.91583
1990,206.0,204.90648
1991,206.0,204.78497
1992,207.0,204.64996
1993,202.0,204.38885
1994,207.0,204.6543
1995,207.0,204.39368
1996,207.0,204.1041
1997,202.0,203.78233
1998,206.0,203.98038
1999,200.0,203.75598
2000,205.0,204.17332
2001,200.0,204.08148
2002,210.0,204.53499
2003,200.0,203.92776
2004,200.0,204.3642
2005,200.0,204.8491
2006,208.0,205.3879
2007,209.0,205.09766
2008,203.0,204.66408
2009,202.0,204.84898
2010,210.0,205.16554
2011,210.0,204.62839
2012,215.0,204.03156
2013,208.0,202.81285
2014,204.0,202.23651
2015,195.0,202.04059
2016,198.0,202.82288
2017,200.0,203.35875
2018,200.0,203.73195
2019,200.0,204.14662
2020,201.0,204.60736
2021,202.0,205.00818
2022,214.0,205.34244
2023,207.0,204.3805
2024,208.0,204.08945
2025,195.0,203.65494
2026,206.0,204.61661
2027,205.0,204.46289
2028,206.0,204.40321
2029,208.0,204.22578
2030,192.0,203.80643
2031,190.0,205.11826
2032,203.0,206.79807
2033,206.0,207.22008
2034,205.0,207.35564
2035,210.0,207.61739
2036,202.0,207.35266
2037,213.0,207.9474
2038,207.0,207.386
2039,201.0,207.4289
2040,211.0,208.14322
2041,212.0,207.8258
2042,213.0,207.36201
2043,199.0,206.73558
2044,206.0,207.59511
2045,207.0,207.77234
2046,210.0,207.85817
2047,211.0,207.6202
2048,210.0,207.24466
2049,207.0,206.93852
2050,197.0,206.93852
2051,197.0,206.9317
2052,213.0,208.03523
2053,215.0,207.4836
2054,211.0,206.64845
2055,203.0,206.16495
2056,210.0,206.51662
2057,210.0,206.12958
2058,198.0,205.69954
2059,203.0,206.55504
2060,210.0,206.95004
2061,206.0,206.61116
2062,204.0,206.67906
2063,206.0,206.97675
2064,206.0,207.08527
2065,203.0,207.20586
2066,211.0,207.67317
2067,209.0,207.30353
2068,206.0,207.11504
2069,204.0,207.23892
2070,211.0,207.59882
2071,212.0,207.2209
2072,208.0,206.6899
2073,209.0,206.54433
2074,208.0,206.27148
2075,209.0,206.07944
2076,212.0,205.75494
2077,202.0,205.06105
2078,198.0,205.40117
2079,205.0,206.22353
2080,209.0,206.35948
2081,213.0,206.0661
2082,210.0,205.29567
2083,208.0,204.77296
2084,210.0,204.41441
2085,203.0,203.7938
2086,202.0,203.88199
2087,206.0,204.09111
2088,195.0,203.87901
2089,212.0,204.86557
2090,203.0,204.07286
2091,206.0,204.19206
2092,208.0,203.99118
2093,208.0,203.54576
2094,193.0,203.05084
2095,194.0,204.1676
2096,204.0,205.29735
2097,209.0,205.44151
2098,203.0,205.04614
2099,200.0,205.2735
2100,195.0,205.85945
2101,207.0,207.06607
2102,202.0,207.07343
2103,197.0,207.63715
2104,207.0,208.81906
2105,210.0,209.0212
2106,208.0,208.91245
2107,210.0,209.01382
2108,202.0,208.90425
2109,210.0,209.6714
2110,208.0,209.6349
2111,210.0,209.81656
2112,215.0,209.79619
2113,216.0,209.21799
2114,216.0,208.46443
2115,205.0,207.62715
2116,210.0,207.91907
2117,209.0,207.68785
2118,212.0,207.54207
2119,210.0,207.04675
2120,207.0,206.71863
2121,207.0,206.68738
2122,197.0,206.65265
2123,210.0,207.72517
2124,215.0,207.47243
2125,214.0,206.63603
2126,210.0,205.81783
2127,218.0,205.35315
2128,209.0,203.94795
2129,210.0,203.38663
2130,212.0,202.65181
2131,214.0,201.61313
2132,209.0,200.23682
2133,207.0,199.26314
2134,210.0,198.40349
2135,201.0,197.11499
2136,191.0,196.68332
2137,208.0,197.3148
2138,200.0,196.12756
2139,208.0,195.6973
2140,188.0,194.33034
2141,195.0,195.0337
2142,170.0,195.03746
2143,196.0,197.81941
2144,180.0,198.02158
2145,227.0,200.02397
2146,210.0,197.02664
2147,173.0,195.58516
2148,178.0,198.09462
2149,199.0,200.32736
2150,169.0,200.47485
2151,199.0,203.97208
2152,173.0,204.52454
2153,191.0,208.02727
2154,201.0,209.91919
2155,171.0,210.9102
2156,190.0,215.34467
2157,187.0,218.16075
2158,180.0,221.62306
2159,222.0,226.24785
2160,231.0,226.71985
2161,233.0,226.24428
2162,231.0,225.49365
2163,242.0,224.88184
2164,235.0,222.97983
2165,235.0,221.64426
2166,236.0,220.1603
2167,230.0,218.40033
2168,227.0,217.11148
2169,229.0,216.01277
2170,214.0,214.56976
2171,220.0,214.63309
2172,204.0,214.03677
2173,210.0,215.15198
2174,210.0,215.72443
2175,196.0,216.36047
2176,207.0,218.62274
2177,197.0,219.91417
2178,211.0,222.4602
2179,216.0,223.73357
2180,203.0,224.59285
2181,176.0,226.99207
2182,211.0,232.65785
2183,215.0,235.06429
2184,231.0,237.29366
2185,229.0,237.99295
2186,218.0,238.99217
2187,246.0,241.32463
2188,229.0,240.80515
2189,224.0,242.11684
2190,233.0,244.12984
2191,242.0,245.36649
2192,248.0,245.74055
2193,251.0,245.4895
2194,234.0,244.87723
2195,234.0,246.08582
2196,241.0,247.4287
2197,250.0,248.14299
2198,246.0,247.93666
2199,238.0,248.15184
2200,233.0,249.27983
2201,242.0,251.0887
2202,243.0,252.09856
2203,242.0,253.10951
2204,261.0,254.34392
2205,263.0,253.60435
2206,261.0,252.5604
2207,263.0,251.62267
2208,260.0,250.35852
2209,264.0,249.28725
2210,242.0,247.65251
2211,244.0,248.28058
2212,240.0,248.75621
2213,251.0,249.72913
2214,251.0,249.58792
2215,243.0,249.43103
2216,247.0,250.1456
2217,248.0,250.49512
2218,250.0,250.77235
2219,249.0,250.85817
2220,248.0,251.06465
2221,244.0,251.40517
2222,249.0,252.22798
2223,248.0,252.58665
2224,248.0,253.09628
2225,251.0,253.66254
2226,258.0,253.95837
2227,259.0,253.50931
2228,254.0,252.89925
2229,259.0,252.77695
2230,255.0,252.08551
2231,244.0,251.76169
2232,251.0,252.62411
2233,250.0,252.80457
2234,246.0,253.1162
2235,245.0,253.90688
2236,260.0,254.89653
2237,260.0,254.32948
2238,258.0,253.69943
2239,260.0,253.22159
2240,257.0,252.46843
2241,257.0,251.96494
2242,260.0,251.40549
2243,258.0,250.45055
2244,240.0,249.61172
2245,243.0,250.6797
2246,243.0,251.533
2247,239.0,252.48112
2248,239.0,253.97903
2249,246.0,255.64339
2250,246.0,256.71487
2251,239.0,257.90543
2252,253.0,260.00604
2253,255.0,260.78452
2254,249.0,261.42725
2255,263.0,262.80804
2256,251.0,262.7867
2257,259.0,264.09634
2258,258.0,264.6626
2259,259.0,265.4029
2260,254.0,266.11432
2261,249.0,267.46036
2262,266.0,269.5115
2263,240.0,269.90167
2264,265.0,273.2241
2265,267.0,274.13788
2266,271.0,274.93097
2267,265.0,275.36777
2268,267.0,276.51974
2269,268.0,277.57748
2270,270.0,278.64166
2271,266.0,279.60184
2272,273.0,281.11316
2273,273.0,282.01465
2274,275.0,283.0163
2275,275.0,283.907
2276,270.0,284.8967
2277,275.0,286.5519
2278,276.0,287.83548
2279,278.0,289.15054
2280,278.0,290.38953
2281,278.0,291.76617
2282,281.0,293.29578
2283,284.0,294.662
2284,287.0,295.84668
2285,287.0,296.82965
2286,285.0,297.92184
2287,289.0,299.3576
2288,287.0,300.50845
2289,289.0,302.0094
2290,292.0,303.4549
2291,292.0,304.72766
2292,293.0,306.14185
2293,295.0,307.60208
2294,295.0,309.00232
2295,297.0,310.55814
2296,298.0,312.06458
2297,299.0,313.62732
2298,300.0,315.2526
2299,304.0,316.94733
2300,304.0,318.38593
2301,308.0,319.98438
2302,309.0,321.31598
2303,303.0,322.68445
2304,309.0,324.87164
2305,311.0,326.63516
2306,315.0,328.3724
2307,315.0,329.85825
2308,324.0,331.50916
2309,319.0,332.34354
2310,324.0,333.82617
2311,326.0,334.91797
2312,326.0,335.90884
2313,328.0,337.00983
2314,327.0,338.01093
2315,327.0,339.23434
2316,327.0,340.59372
2317,331.0,342.10413
2318,331.0,343.33792
2319,334.0,344.7088
2320,337.0,345.89868
2321,333.0,346.88742
2322,338.0,348.43048
2323,342.0,349.58945
2324,343.0,350.4327
2325,346.0,351.25858
2326,347.0,351.84286
2327,345.0,352.38095
2328,348.0,353.20108
2329,349.0,353.779
2330,348.0,354.31
2331,351.0,355.01114
2332,351.0,355.45682
2333,353.0,355.95203
2334,355.0,356.28006
2335,355.0,356.4223
2336,352.0,356.58035
2337,356.0,357.08926
2338,354.0,357.2103
2339,352.0,357.56702
2340,354.0,358.18558
2341,354.0,358.65067
2342,359.0,359.16742
2343,356.0,359.18604
2344,356.0,359.54004
2345,361.0,359.93338
2346,358.0,359.81488
2347,358.0,360.01657
2348,359.0,360.24066
2349,358.0,360.37854
2350,357.0,360.64285
2351,359.0,361.0476
2352,357.0,361.27515
2353,359.0,361.75015
2354,359.0,362.05576
2355,358.0,362.3953
2356,360.0,362.88367
2357,359.0,363.20407
2358,362.0,363.6712
2359,362.0,363.8569
2360,366.0,364.06323
2361,365.0,363.84805
2362,362.0,363.72006
2363,357.0,363.91116
2364,363.0,364.67908
2365,359.0,364.86566
2366,362.0,365.51743
2367,363.0,365.90823
2368,365.0,366.23138
2369,365.0,366.36823
2370,361.0,366.52026
2371,361.0,367.13364
2372,366.0,367.81516
2373,367.0,368.01685
2374,366.0,368.12982
2375,368.0,368.36646
2376,366.0,368.4072
2377,366.0,368.67465
2378,366.0,368.97183
2379,369.0,369.30203
2380,366.0,369.3356
2381,368.0,369.70624
2382,364.0,369.89584
2383,367.0,370.55096
2384,366.0,370.94553
2385,366.0,371.49503
2386,370.0,372.1056
2387,369.0,372.33957
2388,370.0,372.71066
2389,367.0,373.01184
2390,373.0,373.6798
2391,370.0,373.75537
2392,370.0,374.17264
2393,371.0,374.63626
2394,371.0,375.04028
2395,363.0,375.4892
2396,371.0,376.8769
2397,376.0,377.52988
2398,366.0,377.69986
2399,364.0,378.99985
2400,365.0,380.6665
2401,372.0,382.40723
2402,374.0,383.56357
2403,376.0,384.6262
2404,379.0,385.58466
2405,382.0,386.3163
2406,380.0,386.7959
2407,382.0,387.551
2408,380.0,388.1678
2409,381.0,389.07532
2410,382.0,389.9726
2411,380.0,390.85843
2412,382.0,392.06494
2413,388.0,393.18326
2414,388.0,393.7592
2415,389.0,394.3991
2416,390.0,394.99902
2417,387.0,395.55447
2418,389.0,396.50497
2419,389.0,397.33887
2420,393.0,398.2654
2421,392.0,398.8505
2422,392.0,399.61166
2423,394.0,400.4574
2424,395.0,401.1749
2425,395.0,401.86102
2426,396.0,402.62338
2427,397.0,403.3593
2428,400.0,404.0659
2429,401.0,404.51767
2430,402.0,404.90854
2431,403.0,405.23172
2432,402.0,405.4797
2433,401.0,405.86633
2434,398.0,406.40704
2435,401.0,407.3412
2436,402.0,408.04578
2437,405.0,408.71753
2438,404.0,409.1306
2439,406.0,409.7007
2440,408.0,410.1119
2441,409.0,410.3466
2442,409.0,410.49622
2443,405.0,410.66248
2444,408.0,411.29166
2445,408.0,411.6574
2446,410.0,412.0638
2447,411.0,412.29315
2448,411.0,412.43683
2449,411.0,412.59647
2450,414.0,412.77386
2451,411.0,412.63763
2452,404.0,412.8196
2453,411.0,413.7996
2454,414.0,414.11066
2455,412.0,414.123
2456,413.0,414.3589
2457,413.0,414.5099
2458,415.0,414.67767
2459,415.0,414.64188
2460,414.0,414.6021
2461,415.0,414.66904
2462,415.0,414.63226
2463,417.0,414.5914
2464,417.0,414.32376
2465,418.0,414.0264
2466,412.0,413.5849
2467,418.0,413.761
2468,415.0,413.29
2469,410.0,413.1
2470,413.0,413.44446
2471,413.0,413.49387
2472,417.0,413.54877
2473,416.0,413.16528
2474,417.0,412.8503
2475,417.0,412.38922
2476,416.0,411.87692
2477,414.0,411.4188
2478,410.0,411.13202
2479,413.0,411.2578
2480,412.0,411.06427
2481,413.0,410.9603
2482,413.0,410.7337
2483,413.0,410.4819
2484,415.0,410.20215
2485,414.0,409.66907
2486,411.0,409.18787
2487,409.0,408.9865
2488,409.0,408.98502
2489,413.0,408.98337
2490,412.0,408.98337
2491,412.0,408.5371
2492,407.0,408.15234
2493,408.0,408.28036
2494,407.0,408.31155
2495,409.0,408.45728
2496,405.0,408.397
2497,404.0,408.77448
2498,403.0,409.305
2499,411.0,410.00558
2500,406.0,409.8951
2501,411.0,410.3279
2502,413.0,410.25323
2503,414.0,409.94806
2504,408.0,409.49786
2505,404.0,409.6643
2506,407.0,410.2937
2507,409.0,410.65967
2508,411.0,410.8441
2509,410.0,410.82675
2510,410.0,410.9186
2511,411.0,411.0207
2512,411.0,411.0207
2513,411.0,411.02298
2514,412.0,411.02554
2515,413.0,410.91727
2516,412.0,410.68588
2517,412.0,410.53986
2518,414.0,410.37762
2519,413.0,409.97516
2520,413.0,409.6391
2521,413.0,409.2657
2522,408.0,408.8508
2523,405.0,408.94534
2524,407.0,409.38373
2525,413.0,409.6486
2526,407.0,409.27625
2527,405.0,409.52914
2528,409.0,410.03238
2529,408.0,410.1471
2530,409.0,410.38568
2531,405.0,410.53967
2532,406.0,411.1552
2533,412.0,411.72803
2534,412.0,411.6978
2535,412.0,411.66425
2536,412.0,411.62695
2537,411.0,411.5855
2538,411.0,411.65057
2539,412.0,411.72287
2540,409.0,411.69208
2541,406.0,411.9912
2542,410.0,412.65692
2543,412.0,412.95215
2544,411.0,413.05795
2545,416.0,413.28662
2546,415.0,412.98514
2547,416.0,412.7613
2548,415.0,412.40143
2549,415.0,412.1127
2550,416.0,411.7919
2551,418.0,411.32434
2552,415.0,410.5826
2553,411.0,410.0918
2554,412.0,409.99088
2555,411.0,409.76764
2556,413.0,409.6307
2557,409.0,409.25638
2558,408.0,409.28488
2559,415.0,409.42767
2560,415.0,408.80853
2561,416.0,408.1206
2562,414.0,407.24512
2563,406.0,406.4946
2564,412.0,406.54956
2565,405.0,405.94397
2566,407.0,406.04886
2567,394.0,405.94318
2568,401.0,407.2702
2569,408.0,407.9669
2570,410.0,407.96323
2571,407.0,407.73694
2572,404.0,407.81882
2573,402.0,408.24313
2574,401.0,408.93683
2575,412.0,409.8187
2576,403.0,409.57632
2577,412.0,410.30704
2578,412.0,410.11893
2579,413.0,409.9099
2580,414.0,409.5666
2581,415.0,409.074
2582,417.0,408.4156
2583,413.0,407.46176
2584,414.0,406.84644
2585,412.0,406.0516
2586,415.0,405.3907
2587,412.0,404.323
2588,408.0,403.47
2589,407.0,402.9667
2590,405.0,402.51855
2591,405.0,402.24286
2592,402.0,401.93652
2593,399.0,401.92947
2594,406.0,402.25497
2595,408.0,401.83887
2596,406.0,401.15433
2597,405.0,400.61594
2598,402.0,400.1288
2599,399.0,399.9209
2600,398.0,400.02325
2601,397.0,400.24808
2602,395.0,400.60898
2603,402.0,401.2322
2604,402.0,401.14688
2605,404.0,401.0521
2606,406.0,400.72458
2607,403.0,400.13843
2608,403.0,399.8205
2609,405.0,399.46725
2610,399.0,398.8525
2611,394.0,398.83615
2612,399.0,399.37354
2613,402.0,399.41507
2614,398.0,399.12784
2615,402.0,399.25317
2616,398.0,398.94797
2617,397.0,399.0533
2618,395.0,399.28146
2619,397.0,399.7572
2620,400.0,400.06357
2621,399.0,400.07065
2622,404.0,400.18964
2623,398.0,399.76627
2624,401.0,399.96255
2625,401.0,399.8473
2626,398.0,399.7192
2627,401.0,399.91025
2628,400.0,399.78915
2629,404.0,399.76575
2630,405.0,399.2953
2631,396.0,398.66144
2632,400.0,398.95715
2633,403.0,398.84128
2634,404.0,398.3792
2635,402.0,397.7547
2636,400.0,397.283
2637,400.0,396.9811
2638,399.0,396.6457
2639,403.0,396.38412
2640,403.0,395.64905
2641,403.0,394.8323
2642,401.0,393.9248
2643,401.0,393.13867
2644,397.0,392.2652
2645,396.0,391.7391
2646,401.0,391.2657
2647,396.0,390.1841
2648,393.0,389.5379
2649,392.0,389.15326
2650,395.0,388.83694
2651,395.0,388.15216
2652,389.0,387.3913
2653,392.0,387.2126
2654,391.0,386.68063
2655,394.0,386.2007
2656,394.0,385.33414
2657,393.0,384.37128
2658,384.0,383.41257
2659,382.0,383.34732
2660,388.0,383.497
2661,388.0,382.9967
2662,386.0,382.4408
2663,381.0,382.04532
2664,385.0,382.16147
2665,385.0,382.16147
2666,385.0,381.8461
2667,388.0,381.49567
2668,392.0,380.77298
2669,387.0,379.52554
2670,379.0,378.69504
2671,383.0,378.66116
2672,377.0,378.17908
2673,384.0,378.3101
2674,383.0,377.6779
2675,385.0,377.08658
2676,393.0,376.2073
2677,388.0,374.34146
2678,388.0,372.82388
2679,380.0,371.13766
2680,381.0,370.15295
2681,380.0,368.94772
2682,384.0,367.7197
2683,380.0,365.9108
2684,371.0,364.34534
2685,383.0,363.60593
2686,367.0,361.45105
2687,380.0,360.8345
2688,359.0,358.70502
2689,369.0,358.67224
2690,368.0,357.52472
2691,367.0,356.3608
2692,364.0,355.17868
2693,356.0,354.19855
2694,368.0,353.99838
2695,372.0,352.44266
2696,364.0,350.26962
2697,368.0,348.74405
2698,356.0,346.60452
2699,357.0,345.56058
2700,354.0,344.28952
2701,357.0,343.2106
2702,348.0,341.67844
2703,351.0,340.97607
2704,348.0,339.8623
2705,350.0,338.95813
2706,349.0,337.73126
2707,335.0,336.4792
2708,339.0,336.64355
2709,343.0,336.38174
2710,331.0,335.6464
2711,342.0,336.16266
2712,349.0,335.51407
2713,344.0,334.01566
2714,343.0,332.9063
2715,336.0,331.78482
2716,336.0,331.31647
2717,332.0,330.79608
2718,332.0,330.66232
2719,332.0,330.5137
2720,328.0,330.34854
2721,333.0,330.6095
2722,329.0,330.3439
2723,341.0,330.49323
2724,319.0,329.3258
2725,324.0,330.47314
2726,339.0,331.19238
2727,326.0,330.3249
2728,333.0,330.80542
2729,329.0,330.56158
2730,334.0,330.7351
2731,343.0,330.37234
2732,344.0,328.9693
2733,334.0,327.29922
2734,338.0,326.55472
2735,327.0,325.28305
2736,320.0,325.0923
2737,334.0,325.6581
2738,328.0,324.73126
2739,330.0,324.3681
2740,322.0,323.74234
2741,316.0,323.9359
2742,325.0,324.8177
2743,326.0,324.79742
2744,330.0,324.66382
2745,327.0,324.07092
2746,329.0,323.74545
2747,328.0,323.16162
2748,327.0,322.62405
2749,326.0,322.13785
2750,323.0,321.7087
2751,322.0,321.56525
2752,326.0,321.51694
2753,325.0,321.01883
2754,321.0,320.57648
2755,324.0,320.52942
2756,323.0,320.14383
2757,321.0,319.8265
2758,323.0,319.6961
2759,321.0,319.32904
2760,319.0,319.14337
2761,322.0,319.1593
2762,322.0,318.84366
2763,321.0,318.49295
2764,322.0,318.2144
2765,321.0,317.79376
2766,321.0,317.4375
2767,315.0,317.04166
2768,320.0,317.26852
2769,314.0,316.96503
2770,320.0,317.2945
2771,321.0,316.9939
2772,320.0,316.54877
2773,320.0,316.1653
2774,319.0,315.73926
2775,320.0,315.37698
2776,314.0,314.8633
2777,316.0,314.95926
2778,308.0,314.84363
2779,311.0,315.60406
2780,310.0,316.11563
2781,310.0,316.79517
2782,305.0,317.5502
2783,306.0,318.94467
2784,304.0,320.38297
2785,321.0,322.2033
2786,326.0,322.337
2787,316.0,321.93
2788,333.0,322.5889
2789,331.0,321.43213
2790,331.0,320.36905
2791,329.0,319.18784
2792,323.0,318.0976
2793,325.0,317.55292
2794,326.0,316.72546
2795,321.0,315.69498
2796,327.0,315.10553
2797,324.0,313.7839
2798,323.0,312.6488
2799,322.0,311.4987
2800,321.0,310.33188
2801,323.0,309.14655
2802,316.0,307.6073
2803,323.0,306.67477
2804,317.0,304.86087
2805,320.0,303.5121
2806,320.0,301.6801
2807,323.0,299.6446
2808,319.0,297.04956
2809,300.0,294.61063
2810,298.0,294.0118
2811,301.0,293.5687
2812,295.0,292.74298
2813,297.0,292.49222
2814,297.0,291.99133
2815,303.0,291.4348
2816,302.0,290.1498
2817,303.0,288.83313
2818,284.0,287.25906
2819,293.0,287.6212
2820,279.0,287.02356
2821,275.0,287.91507
2822,290.0,289.3501
2823,290.0,289.2779
2824,295.0,289.19766
2825,294.0,288.55298
2826,295.0,287.94775
2827,286.0,287.16418
2828,294.0,287.29355
2829,290.0,286.5484
2830,293.0,286.1649
2831,295.0,285.40546
2832,292.0,284.3394
2833,293.0,283.48822
2834,291.0,282.43137
2835,292.0,281.4793
2836,290.0,280.31033
2837,288.0,279.2337
2838,290.0,278.25967
2839,287.0,276.9552
2840,280.0,275.8391
2841,291.0,275.3768
2842,279.0,273.6409
2843,287.0,273.04544
2844,291.0,271.49493
2845,284.0,269.32773
2846,281.0,267.69748
2847,284.0,266.21942
2848,266.0,264.2438
2849,256.0,264.04868
2850,265.0,264.943
2851,276.0,264.93665
2852,272.0,263.7074
2853,272.0,262.786
2854,266.0,261.76224
2855,269.0,261.29138
2856,260.0,260.43488
2857,259.0,260.4832
2858,255.0,260.64798
2859,264.0,261.27554
2860,270.0,260.97284
2861,280.0,259.96985
2862,279.0,257.74426
2863,249.0,255.38252
2864,258.0,256.0917
2865,256.0,255.87968
2866,256.0,255.86632
2867,266.0,255.85147
2868,267.0,254.72386
2869,249.0,253.35985
2870,250.0,253.84428
2871,246.0,254.27144
2872,260.0,255.19049
2873,254.0,254.65611
2874,257.0,254.72902
2875,251.0,254.4767
2876,255.0,254.863
2877,240.0,254.8478
2878,245.0,256.49756
2879,252.0,257.7751
2880,260.0,258.41675
2881,254.0,258.24084
2882,234.0,258.71207
2883,252.0,261.45786
2884,263.0,262.50873
2885,261.0,262.45416
2886,262.0,262.61575
2887,256.0,262.68417
2888,247.0,263.42688
2889,269.0,265.25208
2890,261.0,264.83563
2891,266.0,265.2618
2892,261.0,265.1798
2893,269.0,265.64426
2894,264.0,265.2714
2895,270.0,265.41266
2896,269.0,264.90298
2897,263.0,264.44775
2898,265.0,264.6086
2899,272.0,264.56512
2900,269.0,263.739
2901,254.0,263.15445
2902,265.0,264.1716
2903,272.0,264.07956
2904,271.0,263.19952
2905,270.0,262.33282
2906,266.0,261.48093
2907,270.0,260.97882
2908,263.0,259.97647
2909,262.0,259.64053
2910,263.0,259.37836
2911,265.0,258.97595
2912,265.0,258.30664
2913,262.0,257.56293
2914,259.0,257.06992
2915,259.0,256.85547
2916,265.0,256.6172
2917,255.0,255.68579
2918,266.0,255.762
2919,265.0,254.62444
2920,263.0,253.4716
2921,261.0,252.4129
2922,255.0,251.45879
2923,252.0,251.06532
2924,263.0,250.96149
2925,245.0,249.62387
2926,256.0,250.13763
2927,248.0,249.48627
2928,256.0,249.65141
2929,260.0,248.94601
2930,257.0,247.7178
2931,248.0,246.68646
2932,251.0,246.54051
2933,248.0,246.04501
2934,249.0,245.82779
2935,253.0,245.47534
2936,257.0,244.63927
2937,251.0,243.26587
2938,246.0,242.40652
2939,246.0,242.00725
2940,245.0,241.56361
2941,250.0,241.1818
2942,252.0,240.202
2943,247.0,238.89111
2944,251.0,237.99014
2945,244.0,236.5446
2946,244.0,235.71623
2947,246.0,234.79582
2948,248.0,233.55092
2949,244.0,231.94547
2950,239.0,230.60608
2951,243.0,229.67343
2952,242.0,228.1927
2953,241.0,226.65857
2954,239.0,225.06508
2955,242.0,223.51677
2956,241.0,221.46309
2957,231.0,219.29233
2958,242.0,217.99147
2959,239.0,215.32387
2960,238.0,212.6932
2961,232.0,209.88135
2962,223.0,207.42374
2963,234.0,205.69304
2964,222.0,202.54784
2965,221.0,200.38649
2966,224.0,198.0961
2967,224.0,195.2179
2968,219.0,192.0199
2969,215.0,189.02213
2970,211.0,186.1357
2971,214.0,183.37299
2972,203.0,179.97
2973,200.0,177.41112
2974,188.0,174.90125
2975,198.0,173.44583
2976,204.0,170.71759
2977,149.0,167.01956
2978,186.0,169.02174
2979,182.0,167.13527
2980,157.0,165.48364
2981,175.0,166.42627
2982,180.0,165.47363
2983,171.0,163.85959
2984,177.0,163.06621
2985,167.0,161.51802
2986,175.0,160.90892
2987,168.0,159.34325
2988,164.0,158.3814
2989,166.0,157.75711
2990,146.0,156.84123
2991,159.0,158.0458
2992,157.0,157.93979
2993,157.0,158.04422
2994,166.0,158.16025
2995,158.0,157.28915
2996,157.0,157.21017
2997,148.0,157.23354
2998,149.0,158.25949
2999,158.0,159.28833
3000,147.0,159.43147
3001,151.0,160.81276
3002,157.0,161.90306
3003,147.0,162.44786
3004,153.0,164.16429
3005,164.0,165.40477
3006,168.0,165.56087
3007,162.0,165.28986
3008,166.0,165.65541
3009,153.0,165.61713
3010,165.0,167.01903
3011,157.0,167.24336
3012,163.0,168.38152
3013,156.0,168.97946
3014,161.0,170.42162
3015,172.0,171.46846
3016,167.0,171.40941
3017,165.0,171.89935
3018,168.0,172.66595
3019,166.0,173.18439
3020,166.0,173.98265
3021,176.0,174.86961
3022,176.0,174.74402
3023,170.0,174.60446
3024,173.0,175.11607
3025,179.0,175.3512
3026,171.0,174.94579
3027,182.0,175.3842
3028,180.0,174.64912
3029,176.0,174.05458
3030,181.0,173.83842
3031,178.0,173.0427
3032,176.0,172.49188
3033,176.0,172.1021
3034,176.0,171.66899
3035,172.0,171.18776
3036,173.0,171.09752
3037,173.0,170.88614
3038,172.0,170.65126
3039,167.0,170.5014
3040,165.0,170.89046
3041,172.0,171.54495
3042,172.0,171.4944
3043,173.0,171.43823
3044,172.0,171.26471
3045,175.0,171.18301
3046,175.0,170.75891
3047,173.0,170.28769
3048,170.0,169.98633
3049,173.0,169.98482
3050,175.0,169.6498
3051,175.0,169.05533
3052,170.0,168.3948
3053,173.0,168.21646
3054,167.0,167.68495
3055,171.0,167.76106
3056,172.0,167.40118
3057,176.0,166.89021
3058,173.0,165.878
3059,174.0,165.08667
3060,176.0,164.09631
3061,170.0,162.77368
3062,168.0,161.97076
3063,175.0,161.30086
3064,172.0,159.77873
3065,171.0,158.42082
3066,165.0,157.02313
3067,169.0,156.13681
3068,169.0,154.70758
3069,167.0,153.11955
3070,178.0,151.57729
3071,170.0,148.64143
3072,161.0,146.26826
3073,138.0,144.63141
3074,157.0,145.36823
3075,163.0,144.0758
3076,163.0,141.97313
3077,142.0,139.63681
3078,136.0,139.37424
3079,136.0,139.74915
3080,139.0,140.16573
3081,144.0,140.29526
3082,146.0,139.88362
3083,141.0,139.20403
3084,142.0,139.00447
3085,143.0,138.67163
3086,142.0,138.1907
3087,153.0,137.76746
3088,135.0,136.07495
3089,134.0,136.1944
3090,126.0,136.43823
3091,132.0,137.59804
3092,144.0,138.22005
3093,146.0,137.57784
3094,163.0,136.64204
3095,133.0,133.71338
3096,131.0,133.79265
3097,100.0,134.10294
3098,109.0,137.89217
3099,148.0,141.10242
3100,131.0,140.33603
3101,113.0,141.37337
3102,74.0,144.52597
3103,162.0,152.3622
3104,149.0,151.29134
3105,162.0,151.54594
3106,155.0,150.38438
3107,154.0,149.87154
3108,145.0,149.41283
3109,164.0,149.90315
3110,162.0,148.33685
3111,169.0,146.81873
3112,158.0,144.35416
3113,150.0,142.83795
3114,151.0,142.04218
3115,147.0,141.04686
3116,158.0,140.3854
3117,116.0,138.42824
3118,144.0,140.92027
3119,158.0,140.5781
3120,135.0,138.64233
3121,163.0,139.04704
3122,161.0,136.3856
3123,153.0,133.65067
3124,151.0,131.50075
3125,149.0,129.33417
3126,146.0,127.149086
3127,134.0,125.05454
3128,136.0,124.0606
3129,127.0,122.734
3130,136.0,122.26001
3131,135.0,120.733345
3132,146.0,119.14816
3133,142.0,116.16463
3134,139.0,113.29404
3135,124.0,110.43782
3136,130.0,108.930916
3137,118.0,106.58991
3138,125.0,105.32213
3139,112.0,103.135704
3140,120.0,102.15079
3141,133.0,100.16754
3142,134.0,96.51949
3143,111.0,92.354996
3144,100.0,90.28333
3145,96.0,89.203705
3146,101.0,88.44856
3147,86.0,87.05396
3148,89.0,87.171074
3149,83.0,86.96786
3150,89.0,87.40873
3151,92.0,87.23192
3152,91.0,86.70214
3153,67.0,86.2246
3154,67.0,86.2246
3155,92.0,88.36067
3156,96.0,87.95631
3157,87.0,87.06257
3158,90.0,87.06953
3159,85.0,86.74392
3160,57.0,86.93769
3161,83.0,90.26411
3162,84.0,91.07123
3163,89.0,91.85692
3164,95.0,92.174355
3165,95.0,92.174355
3166,99.0,91.8604
3167,94.0,91.06711
3168,90.0,90.741234
3169,90.0,90.82359
3170,90.0,90.91511
3171,89.0,91.01679
3172,88.0,91.24088
3173,95.0,91.60098
3174,91.0,91.22331
3175,93.0,91.24813
3176,93.0,91.053474
3177,92.0,90.8372
3178,95.0,90.708
3179,88.0,90.23111
3180,93.0,90.47901
3181,94.0,90.1989
3182,89.0,89.77655
3183,96.0,89.86283
3184,99.0,89.18092
3185,98.0,88.08991
3186,97.0,86.98879
3187,80.0,85.87644
3188,56.0,86.52938
3189,72.0,89.92154
3190,77.0,91.91283
3191,98.0,93.56981
3192,96.0,93.07757
3193,105.0,92.75285
3194,98.0,91.39206
3195,105.0,90.657845
3196,109.0,89.06427
3197,103.0,86.84919
3198,90.0,85.05466
3199,70.0,84.50517
3200,83.0,86.11686
3201,90.0,86.46317
3202,88.0,86.07019
3203,79.0,85.85577
3204,66.0,86.617516
3205,87.0,88.908356
3206,81.0,89.1204
3207,88.0,90.02267
3208,76.0,90.247406
3209,102.0,91.83045
3210,89.0,90.70051
3211,95.0,90.88945
3212,95.0,90.432724
3213,97.0,89.92525
3214,103.0,89.13917
3215,88.0,87.599075
3216,82.0,87.55453
3217,55.0,88.1717
3218,59.0,91.857445
3219,74.0,95.50827
3220,98.0,97.89808
3221,93.0,97.88676
3222,111.0,98.42973
3223,110.0,97.03304
3224,107.0,95.59227
3225,98.0,94.32475
3226,55.0,93.91639
3227,104.0,98.24043
3228,112.0,97.60048
3229,113.0,96.00054
3230,105.0,94.11171
3231,118.0,92.9019
3232,119.0,90.11322
3233,116.0,86.90358
3234,110.0,83.67065
3235,112.0,80.74516
3236,50.0,77.27241
3237,85.0,80.30268
3238,105.0,79.78076
3239,57.0,76.97862
3240,99.0,79.19848
3241,79.0,76.99831
3242,95.0,76.775894
3243,95.0,74.75099
3244,40.0,72.50111
3245,48.0,76.11234
3246,98.0,79.23594
3247,55.0,77.15104
3248,112.0,79.61227
3249,107.0,76.01363
3250,104.0,72.57071
3251,82.0,69.07857
3252,85.0,67.64285
3253,55.0,65.71428
3254,47.0,66.90476
3255,88.0,69.11641
3256,94.0,67.018234
3257,95.0,64.02026
3258,104.0,60.578068
3259,105.0,55.753407
3260,43.0,50.281563
3261,49.0,51.090626
3262,47.0,51.322918
3263,49.0,51.80324
3264,83.0,52.11471
3265,49.0,48.683014
3266,43.0,48.647793
3267,50.0,49.27533
3268,62.0,49.194813
3269,47.0,47.772015
3270,58.0,47.857796
3271,47.0,46.730885
3272,42.0,46.700985
3273,47.0,47.223316
3274,47.0,47.24813
3275,47.0,47.2757
3276,48.0,47.30633
3277,47.0,47.22926
3278,48.0,47.254734
3279,47.0,47.17193
3280,47.0,47.191032
3281,47.0,47.212257
3282,49.0,47.235844
3283,51.0,47.039825
3284,47.0,46.599808
3285,46.0,46.555344
3286,41.0,46.61705
3287,48.0,47.24117
3288,44.0,47.156857
3289,47.0,47.507618
3290,48.0,47.564022
3291,47.0,47.515583
3292,44.0,47.572872
3293,47.0,47.969856
3294,47.0,48.077618
3295,45.0,48.197353
3296,44.0,48.552616
3297,47.0,49.05846
3298,47.0,49.287178
3299,47.0,49.54131
3300,47.0,49.823677
3301,52.0,50.13742
3302,51.0,49.93047
3303,49.0,49.811638
3304,46.0,49.90182
3305,51.0,50.33536
3306,48.0,50.261517
3307,53.0,50.5128
3308,48.0,50.236446
3309,47.0,50.484943
3310,56.0,50.872158
3311,55.0,50.302402
3312,48.0,49.78045
3313,47.0,49.97828
3314,50.0,50.3092
3315,46.0,50.34356
3316,47.0,50.82618
3317,47.0,51.251312
3318,47.0,51.723682
3319,47.0,52.248535
3320,49.0,52.831707
3321,48.0,53.25745
3322,50.0,53.841614
3323,49.0,54.26846
3324,54.0,54.853844
3325,49.0,54.948715
3326,45.0,55.609684
3327,52.0,56.78854
3328,53.0,57.3206
3329,45.0,57.800667
3330,44.0,59.222965
3331,42.0,60.914406
3332,47.0,63.016006
3333,46.0,64.79556
3334,47.0,66.88396
3335,47.0,69.093285
3336,51.0,71.548096
3337,41.0,73.83122
3338,47.0,77.47914
3339,46.0,80.865715
3340,44.0,84.739685
3341,46.0,89.26632
3342,48.0,94.07369
3343,72.0,99.19299
3344,87.0,102.21444
3345,75.0,103.90494
3346,87.0,107.1166
3347,75.0,109.35178
3348,83.0,113.16865
3349,73.0,116.52072
3350,62.0,121.35635
3351,84.0,127.95151
3352,66.0,132.835
3353,115.0,140.26112
3354,100.0,143.06792
3355,60.0,147.85324
3356,160.0,157.61472
3357,135.0,157.34969
3358,142.0,159.833
3359,133.0,161.81444
3360,82.0,165.01604
3361,168.0,174.24005
3362,185.0,174.9334
3363,182.0,173.8149
3364,188.0,172.90544
3365,155.0,171.22827
3366,168.0,173.03142
3367,140.0,173.59047
3368,184.0,177.32275
3369,166.0,176.58084
3370,192.0,177.75648
3371,167.0,176.17387
3372,136.0,177.1932
3373,179.0,181.77023
3374,173.0,182.07805
3375,192.0,183.08672
3376,165.0,182.09636
3377,165.0,183.99596
3378,185.0,186.10663
3379,191.0,186.2296
3380,191.0,185.69955
3381,192.0,185.11061
3382,176.0,184.34514
3383,176.0,185.27237
3384,193.0,186.30263
3385,193.0,185.55847
3386,173.0,184.73164
3387,176.0,186.03516
3388,171.0,187.15018
3389,182.0,188.94464
3390,177.0,189.71628
3391,189.0,191.12921
3392,193.0,191.3658
3393,168.0,191.18422
3394,176.0,193.76024
3395,189.0,195.7336
3396,191.0,196.48178
3397,189.0,197.09087
3398,181.0,197.98987
3399,191.0,199.87762
3400,205.0,200.86403
3401,178.0,200.40448
3402,211.0,202.89388
3403,201.0,201.9932
3404,207.0,202.10355
3405,201.0,201.55951
3406,179.0,201.62167
3407,203.0,204.13521
3408,195.0,204.26135
3409,200.0,205.29039
3410,189.0,205.87822
3411,194.0,207.75359
3412,185.0,209.28177
3413,208.0,211.97975
3414,205.0,212.42195
3415,210.0,213.24661
3416,210.0,213.24661
3417,210.0,213.60736
3418,205.0,214.00818
3419,202.0,215.0091
3420,215.0,216.45456
3421,215.0,216.61618
3422,205.0,216.79576
3423,207.0,218.1064
3424,208.0,219.34045
3425,220.0,220.60051
3426,210.0,220.66724
3427,211.0,221.8525
3428,217.0,223.05832
3429,215.0,223.73148
3430,218.0,224.70164
3431,214.0,225.44627
3432,229.0,226.7181
3433,228.0,226.46457
3434,232.0,226.29396
3435,230.0,225.65997
3436,214.0,225.17775
3437,223.0,226.41974
3438,216.0,226.79971
3439,230.0,227.99968
3440,229.0,227.77742
3441,215.0,227.64159
3442,225.0,229.04622
3443,216.0,229.4958
3444,226.0,230.99533
3445,232.0,231.55037
3446,235.0,231.50041
3447,236.0,231.11157
3448,236.0,230.5684
3449,231.0,229.96489
3450,223.0,229.84987
3451,231.0,230.61096
3452,224.0,230.56773
3453,221.0,231.2975
3454,223.0,232.44167
3455,235.0,233.49074
3456,233.0,233.32304
3457,231.0,233.35893
3458,237.0,233.62103
3459,229.0,233.2456
3460,229.0,233.71735
3461,233.0,234.2415
3462,226.0,234.37946
3463,232.0,235.3105
3464,230.0,235.67834
3465,232.0,236.30928
3466,226.0,236.7881
3467,239.0,237.98677
3468,230.0,237.8742
3469,239.0,238.74913
3470,236.0,238.72127
3471,238.0,239.02364
3472,241.0,239.13737
3473,239.0,238.93042
3474,240.0,238.9227
3475,237.0,238.80301
3476,232.0,239.00336
3477,241.0,239.78151
3478,237.0,239.64612
3479,239.0,239.94014
3480,241.0,240.04462
3481,241.0,239.93846
3482,241.0,239.82051
3483,238.0,239.68945
3484,243.0,239.87717
3485,233.0,239.53018
3486,242.0,240.25575
3487,239.0,240.06195
3488,240.0,240.17996
3489,242.0,240.19997
3490,242.0,239.99997
3491,240.0,239.77776
3492,238.0,239.75307
3493,241.0,239.94786
3494,240.0,239.83096
3495,242.0,239.8122
3496,235.0,239.5691
3497,236.0,240.0768
3498,240.0,240.52977
3499,238.0,240.58864
3500,237.0,240.87627
3501,239.0,241.30698
3502,233.0,241.56332
3503,239.0,242.5148
3504,240.0,242.90535
3505,244.0,243.22816
3506,241.0,243.14241
3507,243.0,243.38045
3508,239.0,243.42273
3509,242.0,243.91415
3510,241.0,244.12685
3511,241.0,244.47427
3512,246.0,244.8603
3513,244.0,244.73367
3514,242.0,244.8152
3515,243.0,245.128
3516,242.0,245.36446
3517,245.0,245.7383
3518,244.0,245.82034
3519,243.0,246.02261
3520,240.0,246.35846
3521,245.0,247.06496
3522,246.0,247.2944
3523,247.0,247.43822
3524,243.0,247.48692
3525,248.0,247.98547
3526,249.0,247.98386
3527,249.0,247.87097
3528,246.0,247.74553
3529,246.0,247.93948
3530,247.0,248.15498
3531,246.0,248.28333
3532,245.0,248.53703
3533,250.0,248.93004
3534,250.0,248.81116
3535,249.0,248.67906
3536,250.0,248.64342
3537,243.0,248.49269
3538,248.0,249.103
3539,249.0,249.22556
3540,251.0,249.25063
3541,250.0,249.05624
3542,250.0,248.95139
3543,250.0,248.83488
3544,247.0,248.70543
3545,247.0,248.89493
3546,246.0,249.10548
3547,250.0,249.45053
3548,248.0,249.38948
3549,248.0,249.54387
3550,248.0,249.71541
3551,247.0,249.906
3552,249.0,250.22891
3553,250.0,250.36548
3554,247.0,250.4061
3555,246.0,250.78456
3556,250.0,251.31618
3557,250.0,251.46242
3558,251.0,251.62491
3559,251.0,251.69434
3560,251.0,251.77148
3561,250.0,251.85721
3562,251.0,252.06357
3563,252.0,252.18175
3564,253.0,252.20195
3565,249.0,252.11328
3566,252.0,252.45921
3567,249.0,252.51025
3568,252.0,252.9003
3569,252.0,253.00034
3570,253.0,253.1115
3571,250.0,253.12389
3572,250.0,253.471
3573,252.0,253.85666
3574,252.0,254.06296
3575,254.0,254.29219
3576,254.0,254.32468
3577,253.0,254.36076
3578,251.0,254.51196
3579,251.0,254.90218
3580,252.0,255.33575
3581,250.0,255.7064
3582,254.0,256.34045
3583,255.0,256.60052
3584,254.0,256.77835
3585,255.0,257.08707
3586,255.0,257.31897
3587,256.0,257.57663
3588,255.0,257.75183
3589,258.0,258.05762
3590,256.0,258.06403
3591,254.0,258.29337
3592,253.0,258.77042
3593,256.0,259.4116
3594,257.0,259.79065
3595,258.0,260.1007
3596,257.0,260.33414
3597,255.0,260.7046
3598,255.0,261.33844
3599,260.0,262.04272
3600,260.0,262.2697
3601,261.0,262.5219
3602,262.0,262.691
3603,259.0,262.7678
3604,262.0,263.18643
3605,261.0,263.31827
3606,260.0,263.57587
3607,260.0,263.9732
3608,263.0,264.4147
3609,263.0,264.5719
3610,262.0,264.74655
3611,264.0,265.05173
3612,265.0,265.16858
3613,263.0,265.18732
3614,255.0,265.43036
3615,266.0,266.5893
3616,262.0,266.6548
3617,265.0,267.172
3618,266.0,267.41333
3619,264.0,267.57037
3620,267.0,267.96707
3621,266.0,268.07452
3622,266.0,268.30502
3623,262.0,268.56116
3624,268.0,269.2902
3625,268.0,269.43356
3626,266.0,269.59286
3627,269.0,269.9921
3628,269.0,270.10233
3629,269.0,270.22482
3630,269.0,270.36093
3631,271.0,270.51215
3632,270.0,270.45795
3633,265.0,270.50882
3634,271.0,271.1209
3635,269.0,271.13437
3636,270.0,271.37152
3637,270.0,271.52393
3638,265.0,271.69324
3639,271.0,272.43695
3640,268.0,272.59662
3641,271.0,273.10736
3642,267.0,273.34152
3643,271.0,274.04614
3644,272.0,274.3846
3645,272.0,274.64957
3646,271.0,274.94397
3647,274.0,275.3822
3648,274.0,275.5358
3649,272.0,275.70645
3650,272.0,276.1183
3651,272.0,276.57587
3652,275.0,277.0843
3653,275.0,277.3159
3654,275.0,277.5732
3655,276.0,277.85913
3656,276.0,278.0657
3657,276.0,278.29523
3658,276.0,278.55026
3659,277.0,278.83362
3660,273.0,279.03735
3661,277.0,279.7082
3662,276.0,280.0091
3663,278.0,280.45456
3664,278.0,280.7273
3665,279.0,281.03033
3666,276.0,281.25592
3667,280.0,281.8399
3668,278.0,282.04434
3669,280.0,282.4937
3670,281.0,282.7708
3671,281.0,282.9676
3672,281.0,283.18622
3673,271.0,283.42914
3674,280.0,284.81015
3675,280.0,285.34464
3676,282.0,285.93848
3677,281.0,286.37607
3678,283.0,286.97342
3679,284.0,287.41492
3680,284.0,287.79437
3681,284.0,288.21597
3682,285.0,288.68442
3683,284.0,289.0938
3684,286.0,289.6598
3685,283.0,290.06644
3686,286.0,290.85162
3687,283.0,291.3907
3688,287.0,292.323
3689,288.0,292.91443
3690,289.0,293.4605
3691,289.0,293.95615
3692,286.0,294.50684
3693,291.0,295.45206
3694,290.0,295.94672
3695,292.0,296.60748
3696,292.0,297.11942
3697,290.0,297.68823
3698,294.0,298.54248
3699,294.0,299.0472
3700,295.0,299.60803
3701,293.0,300.12006
3702,296.0,300.9112
3703,294.0,301.45688
3704,299.0,302.28543
3705,299.0,302.65048
3706,299.0,303.0561
3707,300.0,303.50677
3708,300.0,303.89642
3709,296.0,304.32938
3710,301.0,305.25485
3711,301.0,305.7276
3712,300.0,306.2529
3713,304.0,306.94766
3714,301.0,307.2752
3715,304.0,307.97244
3716,304.0,308.41385
3717,302.0,308.9043
3718,301.0,309.67145
3719,306.0,310.63495
3720,303.0,311.14993
3721,306.0,312.0555
3722,307.0,312.72836
3723,308.0,313.36484
3724,308.0,313.96097
3725,309.0,314.62332
3726,308.0,315.24814
3727,311.0,316.0535
3728,306.0,316.615
3729,309.0,317.79443
3730,313.0,318.7716
3731,314.0,319.4129
3732,313.0,320.01434
3733,316.0,320.79373
3734,318.0,321.32635
3735,314.0,321.69598
3736,318.0,322.55112
3737,319.0,323.05682
3738,315.0,323.5076
3739,320.0,324.4529
3740,321.0,324.9477
3741,319.0,325.38632
3742,321.0,326.09592
3743,322.0,326.66214
3744,317.0,327.18015
3745,323.0,328.31128
3746,324.0,328.90143
3747,324.0,329.44604
3748,327.0,330.05118
3749,327.0,330.3902
3750,327.0,330.76688
3751,328.0,331.18542
3752,327.0,331.5394
3753,329.0,332.04376
3754,330.0,332.38196
3755,317.0,332.64664
3756,330.0,334.38516
3757,331.0,334.8724
3758,332.0,335.30267
3759,333.0,335.66962
3760,333.0,335.96625
3761,330.0,336.29584
3762,334.0,336.9954
3763,333.0,337.32822
3764,330.0,337.80914
3765,335.0,338.67682
3766,336.0,339.08536
3767,335.0,339.42816
3768,334.0,339.9202
3769,336.0,340.578
3770,338.0,341.08667
3771,340.0,341.42966
3772,339.0,341.5885
3773,338.0,341.87613
3774,340.0,342.30682
3775,341.0,342.56314
3776,340.0,342.73682
3777,341.0,343.04092
3778,339.0,343.2677
3779,339.0,343.7419
3780,341.0,344.2688
3781,342.0,344.632
3782,339.0,344.92444
3783,342.0,345.58273
3784,342.0,345.9808
3785,343.0,346.42313
3786,343.0,346.8035
3787,339.0,347.22614
3788,344.0,348.14017
3789,345.0,348.6002
3790,343.0,349.0002
3791,343.0,349.66693
3792,347.0,350.4077
3793,348.0,350.78635
3794,349.0,351.09595
3795,350.0,351.32886
3796,346.0,351.47653
3797,350.0,352.08505
3798,351.0,352.31674
3799,347.0,352.46304
3800,351.0,353.07004
3801,352.0,353.30005
3802,353.0,353.4445
3803,348.0,353.4939
3804,349.0,354.10434
3805,353.0,354.6715
3806,354.0,354.85727
3807,355.0,354.95255
3808,353.0,354.94727
3809,353.0,355.16364
3810,354.0,355.40405
3811,355.0,355.5601
3812,356.0,355.62234
3813,354.0,355.58038
3814,357.0,355.75598
3815,354.0,355.61777
3816,354.0,355.79755
3817,356.0,355.99728
3818,356.0,355.99698
3819,357.0,355.99664
3820,358.0,355.88516
3821,356.0,355.6502
3822,357.0,355.61133
3823,353.0,355.45703
3824,358.0,355.73007
3825,354.0,355.47787
3826,354.0,355.6421
3827,356.0,355.82455
3828,356.0,355.80505
3829,356.0,355.7834
3830,352.0,355.7593
3831,356.0,356.177
3832,356.0,356.19666
3833,357.0,356.2185
3834,352.0,356.13168
3835,357.0,356.59076
3836,355.0,356.5453
3837,355.0,356.71698
3838,353.0,356.90778
3839,356.0,357.342
3840,358.0,357.49112
3841,358.0,357.4346
3842,358.0,357.3718
3843,357.0,357.30203
3844,358.0,357.3356
3845,358.0,357.2618
3846,357.0,357.1798
3847,355.0,357.1998
3848,358.0,357.44424
3849,358.0,357.3825
3850,347.0,357.3139
3851,356.0,358.4599
3852,357.0,358.73322
3853,357.0,358.92578
3854,357.0,359.13974
3855,357.0,359.37747
3856,353.0,359.64163
3857,359.0,360.3796
3858,360.0,360.5329
3859,360.0,360.59213
3860,356.0,360.65793
3861,361.0,361.17548
3862,360.0,361.19498
3863,362.0,361.32776
3864,360.0,361.25305
3865,362.0,361.39227
3866,362.0,361.32474
3867,363.0,361.2497
3868,363.0,361.05524
3869,361.0,360.83917
3870,362.0,360.82132
3871,362.0,360.69034
3872,363.0,360.5448
3873,363.0,360.5448
3874,351.0,360.27203
3875,362.0,361.30228
3876,363.0,361.22476
3877,364.0,361.02753
3878,351.0,360.69727
3879,362.0,361.77475
3880,362.0,361.74973
3881,362.0,361.72192
3882,363.0,361.691
3883,360.0,361.5456
3884,363.0,361.71735
3885,363.0,361.57486
3886,363.0,361.57486
3887,359.0,361.41653
3888,359.0,361.68506
3889,363.0,361.98343
3890,365.0,361.8705
3891,365.0,361.5228
3892,361.0,361.13644
3893,358.0,361.1516
3894,363.0,361.5018
3895,364.0,361.33536
3896,363.0,361.0393
3897,360.0,360.82147
3898,364.0,360.91275
3899,361.0,360.56973
3900,363.0,360.52194
3901,360.0,360.2466
3902,364.0,360.27402
3903,362.0,359.86005
3904,363.0,359.62225
3905,363.0,359.24698
3906,360.0,358.83
3907,361.0,358.69998
3908,362.0,358.44443
3909,362.0,358.04935
3910,360.0,357.61038
3911,359.0,357.34488
3912,362.0,357.16098
3913,360.0,356.62332
3914,359.0,356.24814
3915,362.0,355.94238
3916,360.0,355.26932
3917,360.0,354.74368
3918,358.0,354.15967
3919,359.0,353.733
3920,355.0,353.1478
3921,358.0,352.94202
3922,359.0,352.38004
3923,353.0,351.6445
3924,357.0,351.49393
3925,356.0,350.88214
3926,355.0,350.31348
3927,351.0,349.79276
3928,355.0,349.65863
3929,355.0,349.06516
3930,355.0,348.40573
3931,354.0,347.67303
3932,352.0,346.97006
3933,352.0,346.41116
3934,347.0,345.7902
3935,350.0,345.65576
3936,348.0,345.17307
3937,350.0,344.85898
3938,349.0,344.28775
3939,347.0,343.7642
3940,348.0,343.40466
3941,348.0,342.8941
3942,349.0,342.3268
3943,348.0,341.58536
3944,345.0,340.87265
3945,346.0,340.41406
3946,341.0,339.7934
3947,339.0,339.65933
3948,343.0,339.7326
3949,341.0,339.36957
3950,342.0,339.18842
3951,341.0,338.876
3952,342.0,338.64
3953,337.0,338.26666
3954,342.0,338.4074
3955,340.0,338.00824
3956,342.0,337.78693
3957,342.0,337.31882
3958,329.0,336.79868
3959,341.0,337.66522
3960,340.0,337.2947
3961,338.0,336.99414
3962,340.0,336.8824
3963,340.0,336.53598
3964,340.0,336.1511
3965,340.0,335.72345
3966,340.0,335.2483
3967,336.0,334.72034
3968,338.0,334.57816
3969,337.0,334.19797
3970,326.0,333.88663
3971,337.0,334.7629
3972,336.0,334.51434
3973,336.0,334.34927
3974,334.0,334.16586
3975,334.0,334.1843
3976,336.0,334.20477
3977,336.0,334.0053
3978,335.0,333.7837
3979,333.0,333.64856
3980,335.0,333.72064
3981,336.0,333.5785
3982,333.0,333.30945
3983,334.0,333.34384
3984,331.0,333.27094
3985,335.0,333.52325
3986,335.0,333.3592
3987,333.0,333.17688
3988,331.0,333.19656
3989,334.0,333.44064
3990,334.0,333.3785
3991,334.0,333.30948
3992,334.0,333.23276
3993,331.0,333.14752
3994,334.0,333.38614
3995,334.0,333.31793
3996,331.0,333.24216
3997,334.0,333.49127
3998,334.0,333.43475
3999,334.0,333.37195
4000,334.0,333.3022
4001,335.0,333.22467
4002,332.0,333.02744
4003,334.0,333.1416
4004,335.0,333.04623
4005,330.0,332.82916
4006,335.0,333.14352
4007,334.0,332.93726
4008,334.0,332.81918
4009,335.0,332.688
4010,333.0,332.4311
4011,334.0,332.3679
4012,334.0,332.18655
4013,333.0,331.98508
4014,334.0,331.87234
4015,331.0,331.63596
4016,333.0,331.7066
4017,330.0,331.56293
4018,334.0,331.7366
4019,330.0,331.48514
4020,334.0,331.65015
4021,333.0,331.38907
4022,329.0,331.2101
4023,334.0,331.4557
4024,333.0,331.173
4025,334.0,330.97003
4026,334.0,330.6334
4027,334.0,330.25934
4028,332.0,329.84372
4029,326.0,329.60413
4030,334.0,330.00458
4031,333.0,329.56067
4032,333.0,329.17853
4033,332.0,328.75394
4034,332.0,328.39325
4035,332.0,327.9925
4036,332.0,327.5472
4037,332.0,327.05246
4038,331.0,326.50272
4039,327.0,326.00302
4040,329.0,325.89224
4041,328.0,325.54694
4042,328.0,325.27438
4043,328.0,324.97156
4044,328.0,324.6351
4045,327.0,324.26123
4046,329.0,323.9569
4047,328.0,323.39658
4048,326.0,322.8851
4049,327.0,322.539
4050,327.0,322.04333
4051,327.0,321.49258
4052,325.0,320.88065
4053,326.0,320.42294
4054,322.0,319.80328
4055,325.0,319.5592
4056,317.0,318.95468
4057,324.0,319.17188
4058,323.0,318.63544
4059,323.0,318.1505
4060,323.0,317.6117
4061,322.0,317.013
4062,322.0,316.4589
4063,320.0,315.8432
4064,318.0,315.38135
4065,317.0,315.0904
4066,319.0,314.8782
4067,319.0,314.42026
4068,319.0,313.9114
4069,318.0,313.346
4070,316.0,312.82892
4071,317.0,312.47656
4072,318.0,311.97394
4073,317.0,311.3044
4074,314.0,310.67157
4075,315.0,310.30176
4076,310.0,309.77972
4077,314.0,309.75525
4078,313.0,309.28363
4079,313.0,308.87073
4080,309.0,308.41193
4081,311.0,308.3466
4082,311.0,308.05176
4083,308.0,307.72418
4084,311.0,307.69357
4085,310.0,307.3262
4086,310.0,307.0291
4087,310.0,306.69904
4088,308.0,306.33228
4089,308.0,306.147
4090,310.0,305.94113
4091,305.0,305.49014
4092,309.0,305.54462
4093,309.0,305.1607
4094,308.0,304.73413
4095,307.0,304.37128
4096,307.0,304.0792
4097,303.0,303.75464
4098,307.0,303.8385
4099,305.0,303.4872
4100,304.0,303.31912
4101,306.0,303.24347
4102,306.0,302.9372
4103,305.0,302.5969
4104,305.0,302.5969
4105,305.0,302.3299
4106,304.0,302.03323
4107,303.0,301.81473
4108,304.0,301.68304
4109,303.0,301.42563
4110,304.0,301.25073
4111,303.0,300.94528
4112,300.0,300.717
4113,303.0,300.7967
4114,303.0,300.5519
4115,304.0,300.2799
4116,300.0,299.86658
4117,303.0,299.85175
4118,299.0,299.50195
4119,303.0,299.55774
4120,302.0,299.1753
4121,301.0,298.86142
4122,302.0,298.6238
4123,302.0,298.2487
4124,299.0,297.83188
4125,296.0,297.7021
4126,302.0,297.8912
4127,301.0,297.43466
4128,300.0,297.0385
4129,300.0,296.70947
4130,300.0,296.34387
4131,300.0,295.93765
4132,299.0,295.4863
4133,300.0,295.09592
4134,299.0,294.55103
4135,296.0,294.0567
4136,295.0,293.8408
4137,297.0,293.712
4138,297.0,293.34668
4139,295.0,292.94073
4140,297.0,292.71194
4141,296.0,292.2355
4142,293.0,291.81723
4143,296.0,291.68582
4144,294.0,291.20648
4145,295.0,290.89612
4146,294.0,290.44012
4147,296.0,290.0446
4148,292.0,289.38287
4149,294.0,289.09207
4150,294.0,288.54675
4151,288.0,287.94086
4152,283.0,287.9343
4153,291.0,288.48257
4154,292.0,288.20285
4155,291.0,287.78094
4156,291.0,287.42328
4157,291.0,287.02588
4158,290.0,286.58432
4159,289.0,286.2048
4160,288.0,285.89426
4161,285.0,285.6603
4162,286.0,285.73367
4163,288.0,285.70407
4164,287.0,285.449
4165,289.0,285.27667
4166,282.0,284.86298
4167,288.0,285.1811
4168,287.0,284.8679
4169,290.0,284.63098
4170,288.0,284.03445
4171,283.0,283.59384
4172,286.0,283.65985
4173,288.0,283.39984
4174,287.0,282.88873
4175,286.0,282.43192
4176,285.0,282.03546
4177,282.0,281.7061
4178,283.0,281.67343
4179,283.0,281.52603
4180,283.0,281.36227
4181,284.0,281.18033
4182,283.0,280.86703
4183,281.0,280.63004
4184,284.0,280.58893
4185,283.0,280.20993
4186,281.0,279.89993
4187,279.0,279.7777
4188,283.0,279.86414
4189,283.0,279.51572
4190,282.0,279.12857
4191,282.0,278.8095
4192,281.0,278.45502
4193,279.0,278.17224
4194,282.0,278.08026
4195,280.0,277.64474
4196,280.0,277.38306
4197,281.0,277.09232
4198,280.0,276.65814
4199,280.0,276.28683
4200,279.0,275.87427
4201,279.0,275.52698
4202,279.0,275.14108
4203,277.0,274.7123
4204,275.0,274.45813
4205,277.0,274.39792
4206,271.0,274.1088
4207,273.0,274.45422
4208,277.0,274.6158
4209,277.0,274.35092
4210,277.0,274.05658
4211,278.0,273.72952
4212,273.0,273.25504
4213,273.0,273.2834
4214,275.0,273.31488
4215,276.0,273.12766
4216,275.0,272.8085
4217,275.0,272.565
4218,274.0,272.29446
4219,275.0,272.10498
4220,272.0,271.7833
4221,273.0,271.75922
4222,274.0,271.62137
4223,274.0,271.3571
4224,274.0,271.06345
4225,273.0,270.73715
4226,273.0,270.48575
4227,273.0,270.2064
4228,273.0,269.896
4229,272.0,269.55112
4230,263.0,269.27902
4231,273.0,269.9767
4232,272.0,269.6408
4233,273.0,269.37866
4234,268.0,268.97632
4235,272.0,269.0848
4236,272.0,268.7609
4237,271.0,268.401
4238,269.0,268.11224
4239,269.0,268.0136
4240,271.0,267.90402
4241,271.0,267.56003
4242,267.0,267.17783
4243,270.0,267.19757
4244,270.0,266.8862
4245,270.0,266.54022
4246,269.0,266.15582
4247,261.0,265.8398
4248,268.0,266.37756
4249,268.0,266.1973
4250,268.0,265.997
4251,268.0,265.77448
4252,268.0,265.5272
4253,269.0,265.25244
4254,265.0,264.83606
4255,268.0,264.81784
4256,264.0,264.46426
4257,266.0,264.51587
4258,267.0,264.35098
4259,266.0,264.05664
4260,266.0,263.84073
4261,264.0,263.60083
4262,266.0,263.5565
4263,266.0,263.285
4264,266.0,262.98334
4265,266.0,262.64816
4266,264.0,262.27576
4267,265.0,262.08417
4268,265.0,261.7602
4269,265.0,261.40024
4270,264.0,261.00027
4271,264.0,260.667
4272,265.0,260.29666
4273,255.0,259.77408
4274,264.0,260.30453
4275,261.0,259.89392
4276,263.0,259.77103
4277,261.0,259.41226
4278,263.0,259.23584
4279,263.0,258.81763
4280,262.0,258.35294
4281,262.0,257.9477
4282,257.0,257.49744
4283,261.0,257.5527
4284,261.0,257.16968
4285,260.0,256.74408
4286,261.0,256.38232
4287,260.0,255.86926
4288,258.0,255.4103
4289,257.0,255.12256
4290,255.0,254.91396
4291,259.0,254.9044
4292,259.0,254.44936
4293,258.0,253.94374
4294,258.0,253.49304
4295,258.0,252.99226
4296,257.0,252.43585
4297,257.0,251.92874
4298,255.0,251.36528
4299,246.0,250.96143
4300,255.0,251.5127
4301,253.0,251.12523
4302,249.0,250.91693
4303,254.0,251.12993
4304,253.0,250.81105
4305,253.0,250.56784
4306,253.0,250.2976
4307,253.0,249.99734
4308,247.0,249.66371
4309,252.0,249.95969
4310,252.0,249.733
4311,252.0,249.48112
4312,253.0,249.20126
4313,249.0,248.77919
4314,252.0,248.75467
4315,251.0,248.39409
4316,250.0,248.10454
4317,248.0,247.89394
4318,250.0,247.88216
4319,250.0,247.64685
4320,250.0,247.38539
4321,250.0,247.09488
4322,250.0,246.7721
4323,250.0,246.41345
4324,247.0,246.01495
4325,242.0,245.90552
4326,249.0,246.33948
4327,249.0,246.04388
4328,249.0,245.71544
4329,245.0,245.3505
4330,247.0,245.38945
4331,248.0,245.21051
4332,247.0,244.90057
4333,248.0,244.66731
4334,244.0,244.29701
4335,247.0,244.33003
4336,244.0,244.03339
4337,246.0,244.03711
4338,246.0,243.81902
4339,246.0,243.57669
4340,246.0,243.30743
4341,245.0,243.00826
4342,239.0,242.78696
4343,240.0,243.20775
4344,245.0,243.56416
4345,245.0,243.40463
4346,244.0,243.22737
4347,244.0,243.14154
4348,240.0,243.04617
4349,246.0,243.38464
4350,246.0,243.09406
4351,244.0,242.77118
4352,245.0,242.63466
4353,244.0,242.37184
4354,244.0,242.19095
4355,244.0,241.98996
4356,241.0,241.76663
4357,242.0,241.8518
4358,243.0,241.83536
4359,246.0,241.70596
4360,239.0,241.22885
4361,243.0,241.47652
4362,243.0,241.30724
4363,242.0,241.11916
4364,243.0,241.0213
4365,242.0,240.80145
4366,242.0,240.66829
4367,243.0,240.52032
4368,240.0,240.24481
4369,242.0,240.27202
4370,240.0,240.08003
4371,243.0,240.08893
4372,242.0,239.76547
4373,242.0,239.5172
4374,242.0,239.24133
4375,243.0,238.93483
4376,240.0,238.48314
4377,238.0,238.3146
4378,238.0,238.34956
4379,241.0,238.38841
4380,240.0,238.09824
4381,241.0,237.88693
4382,240.0,237.54103
4383,231.0,237.26782
4384,240.0,237.96425
4385,240.0,237.73807
4386,240.0,237.48676
4387,240.0,237.20752
4388,239.0,236.89725
4389,239.0,236.66362
4390,239.0,236.40404
4391,238.0,236.11562
4392,239.0,235.90625
4393,239.0,235.56252
4394,236.0,235.18059
4395,230.0,235.08954
4396,238.0,235.65504
4397,235.0,235.3945
4398,237.0,235.43834
4399,237.0,235.26483
4400,236.0,235.07204
4401,236.0,234.96893
4402,237.0,234.85437
4403,236.0,234.61598
4404,232.0,234.4622
4405,236.0,234.7358
4406,236.0,234.59532
4407,232.0,234.43924
4408,236.0,234.71028
4409,236.0,234.56697
4410,237.0,234.40775
4411,233.0,234.11972
4412,236.0,234.24414
4413,236.0,234.04904
4414,235.0,233.83228
4415,235.0,233.70253
4416,235.0,233.55838
4417,235.0,233.39821
4418,236.0,233.22023
4419,232.0,232.91136
4420,231.0,233.01263
4421,236.0,233.23627
4422,235.0,232.92918
4423,236.0,232.6991
4424,232.0,232.33234
4425,233.0,232.36928
4426,233.0,232.2992
4427,235.0,232.22133
4428,235.0,231.9126
4429,234.0,231.56956
4430,227.0,231.29953
4431,232.0,231.77727
4432,232.0,231.75253
4433,232.0,231.72505
4434,231.0,231.69452
4435,232.0,231.77168
4436,231.0,231.74632
4437,227.0,231.82925
4438,228.0,232.36584
4439,230.0,232.85094
4440,234.0,233.16771
4441,235.0,233.07524
4442,232.0,232.86139
4443,235.0,232.9571
4444,235.0,232.73013
4445,235.0,232.47794
4446,233.0,232.19771
4447,238.0,232.10857
4448,235.0,231.45396
4449,236.0,231.05997
4450,237.0,230.51108
4451,235.0,229.7901
4452,237.0,229.21123
4453,236.0,228.34583
4454,234.0,227.49536
4455,237.0,226.77264
4456,235.0,225.63628
4457,237.0,224.59587
4458,237.0,223.21764
4459,237.0,221.68628
4460,236.0,219.98476
4461,236.0,218.20528
4462,236.0,216.22809
4463,234.0,214.0312
4464,237.0,211.81245
4465,228.0,209.01384
4466,232.0,206.90427
4467,237.0,204.11586
4468,238.0,200.46208
4469,239.0,196.2912
4470,238.0,191.54579
4471,240.0,186.38422
4472,236.0,180.42691
4473,240.0,174.25212
4474,236.0,166.94681
4475,242.0,159.27423
4476,235.0,150.08249
4477,224.0,140.64722
4478,222.0,131.3858
4479,201.0,121.31756
4480,219.0,112.46396
4481,215.0,100.626625
4482,190.0,87.91847
4483,188.0,76.57608
4484,186.0,64.19565
4485,65.0,50.661835
4486,57.0,49.068707
4487,47.0,48.18745
4488,48.0,48.31939
4489,47.0,48.354877
4490,47.0,48.50542
4491,47.0,48.67269
4492,47.0,48.858547
4493,51.0,49.065052
4494,42.0,48.85006
4495,46.0,49.61118
4496,47.0,50.012424
4497,54.0,50.347137
4498,44.0,49.941265
4499,44.0,50.601406
4500,46.0,51.334896
4501,46.0,51.927666
4502,46.0,52.5863
4503,47.0,53.318115
4504,48.0,54.02013
4505,47.0,54.689037
4506,47.0,55.543377
4507,47.0,56.49264
4508,47.0,57.54738
4509,51.0,58.71931
4510,47.0,59.577015
4511,47.0,60.97446
4512,45.0,62.52718
4513,43.0,64.47465
4514,44.0,66.86072
4515,48.0,69.4008
4516,48.0,71.77867
4517,49.0,74.420746
4518,49.0,74.420746
4519,49.0,77.24528
4520,49.0,80.383644
4521,48.0,83.87072
4522,49.0,87.85635
4523,50.0,92.17373
4524,159.0,96.8597
4525,160.0,89.95522
4526,174.0,82.17247
4527,189.0,71.96941
4528,94.0,58.96602
4529,94.0,58.96602
4530,83.0,55.073353
4531,82.0,51.970394
4532,49.0,48.63377
4533,49.0,48.59308
4534,49.0,48.547863
4535,49.0,48.497623
4536,49.0,48.441803
4537,49.0,48.37978
4538,49.0,48.310867
4539,49.0,48.2343
4540,47.0,48.14922
4541,49.0,48.276913
4542,49.0,48.19657
4543,50.0,48.1073
4544,49.0,47.897
4545,49.0,47.774445
4546,48.0,47.63827
4547,51.0,47.59808
4548,47.0,47.220093
4549,46.0,47.24455
4550,42.0,47.382835
4551,48.0,47.980927
4552,47.0,47.97881
4553,53.0,48.087566
4554,48.0,47.541744
4555,42.0,47.49083
4556,46.0,48.10092
4557,47.0,48.334362
4558,47.0,48.482624
4559,46.0,48.64736
4560,46.0,48.941517
4561,47.0,49.268356
4562,44.0,49.520397
4563,46.0,50.133774
4564,45.0,50.593086
4565,47.0,51.214542
4566,46.0,51.682827
4567,46.0,52.314255
4568,46.0,53.015842
4569,46.0,53.795383
4570,46.0,54.66154
4571,49.0,55.62394
4572,44.0,56.359932
4573,47.0,57.733257
4574,46.0,58.925842
4575,46.0,60.36205
4576,47.0,61.957836
4577,47.0,63.61982
4578,42.0,65.46647
4579,47.0,68.07386
4580,47.0,70.415405
4581,47.0,73.01712
4582,47.0,75.90792
4583,51.0,79.11992
4584,47.0,82.244354
4585,44.0,86.1604
4586,46.0,90.84489
4587,48.0,95.82765
4588,46.0,101.14184
4589,47.0,107.268715
4590,47.0,113.96525
4591,47.0,121.40584
4592,52.0,129.67316
4593,51.0,138.30351
4594,45.0,148.0039
4595,43.0,159.44879
4596,48.0,172.38754
4597,48.0,186.20837
4598,98.0,201.56487
4599,47.0,213.07207
4600,125.0,231.52452
4601,146.0,243.36058
4602,232.0,254.17842
4603,237.0,256.6427
4604,229.0,258.82523
4605,248.0,262.13916
4606,258.0,263.7102
4607,262.0,264.3447
4608,260.0,264.60522
4609,257.0,265.11694
4610,262.0,266.01883
4611,260.0,266.46536
4612,263.0,267.18375
4613,265.0,267.64862
4614,261.0,267.9429
4615,262.0,268.71436
4616,262.0,269.4604
4617,261.0,270.28934
4618,265.0,271.3215
4619,267.0,272.0239
4620,267.0,272.5821
4621,269.0,273.20233
4622,268.0,273.66925
4623,272.0,274.29916
4624,270.0,274.55463
4625,271.0,275.0607
4626,272.0,275.5119
4627,272.0,275.90213
4628,271.0,276.3357
4629,274.0,276.92856
4630,275.0,277.25397
4631,270.0,277.50443
4632,275.0,278.33826
4633,276.0,278.7092
4634,274.0,279.01022
4635,274.0,279.56693
4636,276.0,280.1855
4637,277.0,280.65054
4638,274.0,281.05615
4639,277.0,281.84018
4640,278.0,282.378
4641,280.0,282.86444
4642,277.0,283.1827
4643,279.0,283.8697
4644,280.0,284.41077
4645,281.0,284.90085
4646,280.0,285.3343
4647,282.0,285.927
4648,282.0,286.36334
4649,281.0,286.84814
4650,281.0,287.49792
4651,281.0,288.2199
4652,280.0,289.02213
4653,284.0,290.0246
4654,286.0,290.694
4655,286.0,291.21555
4656,286.0,291.79504
4657,284.0,292.43893
4658,287.0,293.37662
4659,288.0,294.0851
4660,285.0,294.76126
4661,286.0,295.84586
4662,288.0,296.93985
4663,290.0,297.9332
4664,290.0,298.81467
4665,289.0,299.79407
4666,292.0,300.9934
4667,295.0,301.99268
4668,294.0,302.76965
4669,294.0,303.74408
4670,295.0,304.82678
4671,297.0,305.91864
4672,297.0,306.9096
4673,298.0,308.01068
4674,299.0,309.12302
4675,299.0,310.2478
4676,302.0,311.4976
4677,302.0,312.55286
4678,305.0,313.7254
4679,304.0,314.69492
4680,308.0,315.88324
4681,310.0,316.7592
4682,311.0,317.51022
4683,309.0,318.23358
4684,311.0,319.25955
4685,311.0,320.17728
4686,312.0,321.19696
4687,313.0,322.21884
4688,315.0,323.2432
4689,318.0,324.15912
4690,319.0,324.84348
4691,320.0,325.49277
4692,315.0,326.1031
4693,321.0,327.33676
4694,320.0,328.04083
4695,319.0,328.93427
4696,320.0,330.0381
4697,322.0,331.15344
4698,322.0,332.1705
4699,323.0,333.30054
4700,327.0,334.44507
4701,326.0,335.27228
4702,329.0,336.30252
4703,328.0,337.11392
4704,329.0,338.12662
4705,331.0,339.1407
4706,332.0,340.0452
4707,334.0,340.93912
4708,333.0,341.71014
4709,335.0,342.67795
4710,335.0,343.53107
4711,337.0,344.47897
4712,338.0,345.30997
4713,339.0,346.1222
4714,343.0,346.91357
4715,344.0,347.34845
4716,347.0,347.72052
4717,348.0,347.80057
4718,343.0,347.77844
4719,345.0,348.3094
4720,342.0,348.6771
4721,342.0,349.41898
4722,350.0,350.2433
4723,347.0,350.27032
4724,346.0,350.6337
4725,345.0,351.14856
4726,345.0,351.14856
4727,345.0,351.83176
4728,345.0,352.59085
4729,346.0,353.4343
4730,351.0,354.2603
4731,352.0,354.6226
4732,350.0,354.91397
4733,353.0,355.45996
4734,354.0,355.7333
4735,358.0,355.9259
4736,357.0,355.69547
4737,358.0,355.5505
4738,353.0,355.27835
4739,353.0,355.53152
4740,352.0,355.81284
4741,351.0,356.23648
4742,360.0,356.81833
4743,352.0,356.4648
4744,353.0,356.9609
4745,350.0,357.40103
4746,355.0,358.2234
4747,344.0,358.58154
4748,344.0,360.20172
4749,354.0,362.00192
4750,358.0,362.89105
4751,365.0,363.43454
4752,364.0,363.26062
4753,353.0,363.1785
4754,361.0,364.30948
4755,362.0,364.6772
4756,360.0,364.97464
4757,362.0,365.52737
4758,355.0,365.9193
4759,366.0,367.13257
4760,364.0,367.25842
4761,357.0,367.62048
4762,369.0,368.80054
4763,373.0,368.77838
4764,369.0,368.30933
4765,369.0,368.2326
4766,361.0,368.14734
4767,365.0,368.9415
4768,353.0,369.37946
4769,359.0,371.1994
4770,362.0,372.5549
4771,357.0,373.72766
4772,368.0,375.58627
4773,376.0,376.42923
4774,385.0,376.47693
4775,377.0,375.52994
4776,384.0,375.3666
4777,386.0,374.40735
4778,387.0,373.1193
4779,379.0,371.577
4780,365.0,370.75223
4781,366.0,371.3914
4782,368.0,371.99045
4783,378.0,372.43387
4784,374.0,371.81543
4785,371.0,371.57272
4786,375.0,371.63635
4787,378.0,371.26263
4788,377.0,370.51407
4789,369.0,369.7934
4790,374.0,369.88156
4791,367.0,369.42398
4792,377.0,369.6933
4793,367.0,368.88144
4794,363.0,369.09048
4795,375.0,369.7672
4796,365.0,369.1858
4797,366.0,369.65088
4798,371.0,370.05652
4799,375.0,369.9517
4800,378.0,369.39078
4801,376.0,368.4342
4802,372.0,367.59357
4803,370.0,367.10394
4804,378.0,366.78217
4805,364.0,365.53577
4806,370.0,365.70642
4807,382.0,365.22937
4808,357.0,363.36597
4809,379.0,364.0733
4810,359.0,362.4148
4811,338.0,362.79422
4812,367.0,365.54916
4813,374.0,365.38797
4814,374.0,364.4311
4815,347.0,363.3679
4816,336.0,365.18652
4817,336.0,368.42947
4818,365.0,372.03275
4819,311.0,372.81418
4820,373.0,379.68243
4821,340.0,380.42496
4822,380.0,384.91663
4823,348.0,385.46292
4824,370.0,389.6255
4825,373.0,391.80612
4826,387.0,393.89572
4827,373.0,394.66193
4828,376.0,397.06885
4829,400.0,399.40982
4830,406.0,399.34427
4831,410.0,398.60474
4832,412.0,397.33862
4833,408.0,395.70956
4834,390.0,394.344
4835,365.0,394.82666
4836,374.0,398.14075
4837,378.0,400.82306
4838,385.0,403.35898
4839,395.0,405.39886
4840,389.0,406.5543
4841,376.0,408.5048
4842,386.0,412.11646
4843,395.0,415.01828
4844,392.0,417.24255
4845,397.0,420.04727
4846,402.0,422.6081
4847,421.0,424.8979
4848,420.0,425.331
4849,414.0,425.92334
4850,405.0,427.24817
4851,419.0,429.72018
4852,423.0,430.91135
4853,427.0,431.7904
4854,428.0,432.32266
4855,435.0,432.80298
4856,429.0,432.55887
4857,433.0,432.9543
4858,434.0,432.94928
4859,432.0,432.83255
4860,434.0,432.92505
4861,436.0,432.80563
4862,432.0,432.4507
4863,435.0,432.5008
4864,432.0,432.2231
4865,431.0,432.2479
4866,437.0,432.38657
4867,429.0,431.87396
4868,435.0,432.1933
4869,433.0,431.88144
4870,434.0,431.75717
4871,439.0,431.508
4872,438.0,430.67557
4873,432.0,429.86176
4874,437.0,429.62418
4875,438.0,428.80463
4876,431.0,427.78293
4877,434.0,427.42548
4878,433.0,426.695
4879,433.0,425.99448
4880,435.0,425.2161
4881,434.0,424.129
4882,434.0,423.03223
4883,428.0,421.8136
4884,422.0,421.12625
4885,416.0,421.02917
4886,416.0,421.58798
4887,418.0,422.20886
4888,420.0,422.67654
4889,423.0,422.97394
4890,422.0,422.97107
4891,423.0,423.07895
4892,424.0,423.08774
4893,421.0,422.9864
4894,422.0,423.2071
4895,422.0,423.34122
4896,424.0,423.49023
4897,419.0,423.43362
4898,422.0,423.92627
4899,423.0,424.1403
4900,423.0,424.267
4901,425.0,424.4078
4902,421.0,424.342
4903,423.0,424.71335
4904,422.0,424.90375
4905,426.0,425.22638
4906,427.0,425.14044
4907,426.0,424.93384
4908,426.0,424.81537
4909,424.0,424.68375
4910,423.0,424.75974
4911,422.0,424.9553
4912,422.0,425.28366
4913,424.0,425.6485
4914,427.0,425.8317
4915,427.0,425.70187
4916,427.0,425.55765
4917,427.0,425.39737
4918,426.0,425.2193
4919,426.0,425.13257
4920,424.0,425.0362
4921,424.0,425.15134
4922,425.0,425.2793
4923,425.0,425.31033
4924,423.0,425.34482
4925,428.0,425.60538
4926,427.0,425.33932
4927,428.0,425.15482
4928,424.0,424.8387
4929,425.0,424.93192
4930,425.0,424.92438
4931,428.0,424.916
4932,426.0,424.57333
4933,426.0,424.41483
4934,426.0,424.2387
4935,426.0,424.04303
4936,428.0,423.8256
4937,406.0,423.3618
4938,424.0,425.29086
4939,424.0,425.43433
4940,427.0,425.59372
4941,428.0,425.43747
4942,427.0,425.15277
4943,428.0,424.9475
4944,425.0,424.60837
4945,424.0,424.56488
4946,423.0,424.62766
4947,423.0,424.80853
4948,427.0,425.0095
4949,427.0,424.78833
4950,427.0,424.5426
4951,422.0,424.26956
4952,427.0,424.52173
4953,427.0,424.24637
4954,423.0,423.9404
4955,424.0,424.04492
4956,422.0,424.04993
4957,424.0,424.2777
4958,424.0,424.3086
4959,424.0,424.3429
4960,426.0,424.381
4961,427.0,424.20114
4962,426.0,423.89017
4963,422.0,423.65573
4964,424.0,423.8397
4965,421.0,423.8219
4966,426.0,424.13544
4967,427.0,423.92828
4968,423.0,423.58698
4969,424.0,423.65222
4970,423.0,423.6136
4971,422.0,423.6818
4972,422.0,423.86865
4973,423.0,424.0763
4974,426.0,424.1959
4975,426.0,423.99545
4976,425.0,423.77274
4977,426.0,423.63638
4978,421.0,423.37378
4979,422.0,423.63754
4980,422.0,423.8195
4981,422.0,424.02167
4982,422.0,424.2463
4983,425.0,424.4959
4984,426.0,424.4399
4985,425.0,424.26657
4986,425.0,424.1851
4987,426.0,424.09454
4988,423.0,423.88284
4989,422.0,423.98096
4990,423.0,424.20105
4991,423.0,424.33453
4992,422.0,424.48285
4993,425.0,424.75873
4994,424.0,424.73193
4995,426.0,424.8133
4996,426.0,424.68146
4997,425.0,424.53494
4998,423.0,424.48328
4999,426.0,424.6481
5000,428.0,424.4979
5001,428.0,424.1088
5002,428.0,423.67645
5003,426.0,423.19608
5004,426.0,422.88452
5005,425.0,422.53836
5006,424.0,422.26486
5007,424.0,422.07208
5008,423.0,421.85788
5009,424.0,421.73102
5010,421.0,421.47894
5011,423.0,421.53217
5012,419.0,421.3691
5013,415.0,421.63235
5014,422.0,422.3693
5015,422.0,422.4103
5016,420.0,422.4559
5017,422.0,422.7288
5018,420.0,422.80975
5019,419.0,423.12195
5020,427.0,423.57996
5021,425.0,423.19995
5022,425.0,422.99997
5023,424.0,422.77777
5024,422.0,422.642
5025,421.0,422.71332
5026,425.0,422.9037
5027,422.0,422.67078
5028,423.0,422.7453
5029,427.0,422.71704
5030,423.0,422.24115
5031,423.0,422.15686
5032,423.0,422.0632
5033,417.0,421.95914
5034,423.0,422.51016
5035,428.0,422.45575
5036,427.0,421.83975
5037,423.0,421.2664
5038,419.0,421.0738
5039,419.0,421.30423
5040,411.0,421.56027
5041,420.0,422.73364
5042,422.0,423.03738
5043,424.0,423.15265
5044,422.0,423.0585
5045,423.0,423.17612
5046,421.0,423.1957
5047,427.0,423.43967
5048,427.0,423.04407
5049,426.0,422.60452
5050,423.0,422.22726
5051,427.0,422.14142
5052,426.0,421.60156
5053,427.0,421.11285
5054,426.0,420.45874
5055,427.0,419.84305
5056,430.0,419.04782
5057,426.0,417.83093
5058,422.0,416.92328
5059,418.0,416.3592
5060,417.0,416.1769
5061,420.0,416.08545
5062,424.0,415.6505
5063,425.0,414.7228
5064,411.0,413.5809
5065,417.0,413.86768
5066,416.0,413.51962
5067,412.0,413.24402
5068,412.0,413.38223
5069,411.0,413.5358
5070,408.0,413.81757
5071,409.0,414.464
5072,410.0,415.0711
5073,409.0,415.63458
5074,416.0,416.37177
5075,420.0,416.4131
5076,416.0,416.01456
5077,417.0,416.01617
5078,422.0,415.90686
5079,422.0,415.22983
5080,417.0,414.47757
5081,417.0,414.47757
5082,419.0,414.1973
5083,423.0,413.66367
5084,419.0,412.6263
5085,422.0,411.91815
5086,415.0,410.79794
5087,417.0,410.33105
5088,394.0,409.59006
5089,417.0,411.3223
5090,414.0,410.69144
5091,413.0,410.32385
5092,413.0,410.32385
5093,408.0,410.02652
5094,414.0,410.2517
5095,411.0,409.83524
5096,397.0,409.7058
5097,412.0,411.11755
5098,422.0,411.0195
5099,408.0,409.79944
5100,420.0,409.9994
5101,415.0,408.8882
5102,409.0,408.20914
5103,407.0,408.12128
5104,415.0,408.24585
5105,411.0,407.4954
5106,419.0,407.106
5107,416.0,405.78445
5108,418.0,404.6494
5109,420.0,403.16605
5110,413.0,401.29562
5111,402.0,399.99515
5112,403.0,399.7724
5113,400.0,399.41382
5114,394.0,399.3487
5115,405.0,399.94302
5116,403.0,399.38113
5117,404.0,398.97906
5118,400.0,398.4212
5119,400.0,398.2458
5120,400.0,398.0509
5121,405.0,397.83435
5122,376.0,397.03818
5123,389.0,399.37576
5124,397.0,400.52866
5125,414.0,400.92072
5126,399.0,399.46747
5127,388.0,399.51944
5128,401.0,400.7994
5129,395.0,400.77713
5130,394.0,401.41904
5131,396.0,402.2434
5132,407.0,402.93713
5133,410.0,402.4857
5134,400.0,401.6508
5135,393.0,401.83423
5136,403.0,402.81583
5137,408.0,402.79538
5138,402.0,402.2171
5139,401.0,402.2412
5140,400.0,402.37912
5141,405.0,402.6435
5142,416.0,402.38168
5143,403.0,400.86853
5144,405.0,400.6317
5145,409.0,400.14636
5146,391.0,399.16266
5147,390.0,400.06964
5148,401.0,401.1885
5149,399.0,401.20944
5150,406.0,401.45496
5151,412.0,400.94995
5152,401.0,399.72217
5153,391.0,399.5802
5154,403.0,400.53357
5155,402.0,400.25955
5156,403.0,400.06616
5157,396.0,399.7402
5158,410.0,400.1558
5159,401.0,399.062
5160,406.0,398.84668
5161,409.0,398.05188
5162,411.0,396.83545
5163,405.0,395.26163
5164,397.0,394.1796
5165,394.0,393.8662
5166,401.0,393.85135
5167,400.0,393.05707
5168,394.0,392.28564
5169,383.0,392.09518
5170,377.0,393.10577
5171,390.0,394.8953
5172,388.0,395.43924
5173,390.0,396.26584
5174,389.0,396.96207
5175,402.0,397.84677
5176,401.0,397.3853
5177,406.0,396.9837
5178,393.0,395.9819
5179,385.0,396.31326
5180,402.0,397.5703
5181,402.0,397.07812
5182,404.0,396.53125
5183,399.0,395.70142
5184,402.0,395.33493
5185,406.0,394.59436
5186,408.0,393.32706
5187,409.0,391.69675
5188,405.0,389.77417
5189,382.0,388.08243
5190,386.0,388.75824
5191,393.0,389.06473
5192,404.0,388.6275
5193,390.0,386.91946
5194,385.0,386.5772
5195,391.0,386.75247
5196,391.0,386.28052
5197,371.0,385.75613
5198,381.0,387.39572
5199,383.0,388.10635
5200,393.0,388.67374
5201,405.0,388.19305
5202,394.0,386.32562
5203,400.0,385.47293
5204,396.0,383.85883
5205,404.0,382.5098
5206,392.0,380.122
5207,404.0,378.80222
5208,401.0,376.00247
5209,391.0,373.22498
5210,379.0,371.24997
5211,382.0,370.3889
5212,377.0,369.09875
5213,375.0,368.22083
5214,362.0,367.4676
5215,378.0,368.0751
5216,381.0,366.97235
5217,364.0,365.41373
5218,357.0,365.57083
5219,354.0,366.52313
5220,358.0,367.9146
5221,347.0,369.01627
5222,372.0,371.46252
5223,379.0,371.4028
5224,376.0,370.5587
5225,377.0,369.9541
5226,370.0,369.17123
5227,368.0,369.07916
5228,343.0,369.1991
5229,332.0,372.11014
5230,327.0,376.5668
5231,359.0,382.07422
5232,369.0,384.63803
5233,367.0,386.3756
5234,368.0,388.52844
5235,355.0,390.80942
5236,386.0,394.78824
5237,396.0,395.7647
5238,386.0,395.73856
5239,398.0,396.82062
5240,397.0,396.6896
5241,396.0,396.65512
5242,395.0,396.7279
5243,394.0,396.91992
5244,395.0,397.2444
5245,403.0,397.49377
5246,412.0,396.882
5247,402.0,395.2022
5248,394.0,394.4469
5249,396.0,394.49658
5250,395.0,394.32953
5251,399.0,394.25504
5252,407.0,393.72784
5253,393.0,392.25314
5254,386.0,392.1702
5255,382.0,392.85577
5256,394.0,394.06198
5257,395.0,394.06888
5258,391.0,393.96542
5259,391.0,394.29492
5260,395.0,394.66104
5261,399.0,394.62338
5262,403.0,394.13712
5263,392.0,393.15237
5264,391.0,393.28043
5265,386.0,393.5338
5266,397.0,394.3709
5267,395.0,394.0788
5268,386.0,393.97644
5269,395.0,394.86273
5270,398.0,394.8475
5271,383.0,394.49725
5272,402.0,395.77475
5273,392.0,395.08304
5274,407.0,395.4256
5275,378.0,394.13956
5276,401.0,395.93286
5277,403.0,395.36984
5278,402.0,394.52206
5279,377.0,393.6912
5280,399.0,395.54578
5281,409.0,395.162
5282,377.0,393.62445
5283,405.0,395.47162
5284,410.0,394.41293
5285,394.0,392.68106
5286,388.0,392.53452
5287,391.0,393.0384
5288,386.0,393.2649
5289,390.0,394.0721
5290,395.0,394.52457
5291,392.0,394.47174
5292,383.0,394.74637
5293,388.0,396.05154
5294,406.0,396.9462
5295,408.0,395.94022
5296,408.0,395.94022
5297,403.0,394.60028
5298,398.0,393.667
5299,403.0,393.18558
5300,406.0,392.09512
5301,363.0,390.55014
5302,392.0,393.6113
5303,399.0,393.7903
5304,383.0,393.2115
5305,398.0,394.34613
5306,398.0,394.34613
5307,406.0,393.94016
5308,397.0,392.6002
5309,401.0,392.11133
5310,392.0,391.12372
5311,384.0,391.02634
5312,394.0,391.80707
5313,374.0,391.56342
5314,383.0,393.51492
5315,370.0,394.6833
5316,389.0,397.4259
5317,410.0,398.36212
5318,402.0,397.06903
5319,414.0,396.52115
5320,402.0,394.57907
5321,401.0,393.75452
5322,403.0,392.94946
5323,396.0,391.83276
5324,380.0,391.36975
5325,374.0,392.63306
5326,394.0,394.7034
5327,397.0,394.7816
5328,411.0,394.5351
5329,399.0,392.70566
5330,392.0,392.00632
5331,393.0,392.00702
5332,407.0,391.8967
5333,379.0,390.21854
5334,384.0,391.46506
5335,389.0,392.29453
5336,401.0,392.6606
5337,399.0,391.734
5338,387.0,390.9267
5339,388.0,391.363
5340,378.0,391.7367
5341,402.0,393.26303
5342,393.0,392.29227
5343,392.0,392.21365
5344,397.0,392.2374
5345,399.0,391.70822
5346,386.0,390.89804
5347,402.0,391.44226
5348,401.0,390.26917
5349,388.0,389.07684
5350,387.0,389.1965
5351,391.0,389.44055
5352,386.0,389.26727
5353,386.0,389.6303
5354,400.0,390.0337
5355,400.0,388.92633
5356,388.0,387.69592
5357,399.0,387.66217
5358,388.0,386.40244
5359,390.0,386.22495
5360,389.0,385.8055
5361,395.0,385.4506
5362,399.0,384.38956
5363,386.0,382.76617
5364,392.0,382.40686
5365,389.0,381.34094
5366,388.0,380.48996
5367,389.0,379.65552
5368,366.0,378.61725
5369,386.0,380.01917
5370,386.0,379.35464
5371,366.0,378.61627
5372,364.0,380.0181
5373,378.0,381.7979
5374,375.0,382.21994
5375,367.0,383.02216
5376,379.0,384.8024
5377,368.0,385.4471
5378,393.0,387.3857
5379,383.0,386.76193
5380,382.0,387.17996
5381,397.0,387.75552
5382,385.0,386.72836
5383,390.0,386.9204
5384,386.0,386.57825
5385,380.0,386.64252
5386,383.0,387.38058
5387,382.0,387.86734
5388,386.0,388.51926
5389,393.0,388.79916
5390,390.0,388.33243
5391,389.0,388.14716
5392,378.0,388.0524
5393,392.0,389.16934
5394,379.0,388.85483
5395,392.0,389.94983
5396,399.0,389.72202
5397,384.0,388.69113
5398,383.0,389.2124
5399,384.0,389.9027
5400,392.0,390.5586
5401,383.0,390.39844
5402,391.0,391.22052
5403,383.0,391.24503
5404,392.0,392.16116
5405,398.0,392.17908
5406,389.0,391.53232
5407,395.0,391.8137
5408,396.0,391.45966
5409,392.0,390.95517
5410,392.0,390.83908
5411,390.0,390.71008
5412,394.0,390.789
5413,387.0,390.43225
5414,393.0,390.8136
5415,392.0,390.57068
5416,392.0,390.41187
5417,373.0,390.2354
5418,395.0,392.15048
5419,391.0,391.8339
5420,395.0,391.92654
5421,390.0,391.58505
5422,402.0,391.76117
5423,380.0,390.62354
5424,401.0,391.80396
5425,399.0,390.78217
5426,395.0,389.86908
5427,389.0,389.29898
5428,401.0,389.3322
5429,392.0,388.0358
5430,388.0,387.59534
5431,392.0,387.5504
5432,397.0,387.05603
5433,397.0,385.95114
5434,388.0,384.72348
5435,393.0,384.35944
5436,383.0,383.39938
5437,386.0,383.4438
5438,392.0,383.15976
5439,380.0,382.1775
5440,366.0,382.41943
5441,392.0,384.24384
5442,382.0,383.38205
5443,383.0,383.5356
5444,376.0,383.59515
5445,384.0,384.43906
5446,394.0,384.48785
5447,388.0,383.43097
5448,376.0,382.9233
5449,381.0,383.69257
5450,389.0,383.99173
5451,375.0,383.43527
5452,386.0,384.37253
5453,381.0,384.1917
5454,388.0,384.54636
5455,356.0,384.16266
5456,376.0,387.29184
5457,385.0,388.54648
5458,386.0,388.94055
5459,387.0,389.26727
5460,388.0,389.5192
5461,385.0,389.68802
5462,399.0,390.20892
5463,380.0,389.23215
5464,392.0,390.25797
5465,385.0,390.0644
5466,402.0,390.6271
5467,392.0,389.36343
5468,391.0,389.07047
5469,387.0,388.85608
5470,386.0,389.06232
5471,379.0,389.4026
5472,383.0,390.55844
5473,380.0,391.3983
5474,401.0,392.66476
5475,392.0,391.73862
5476,389.0,391.70956
5477,394.0,392.01065
5478,399.0,391.78964
5479,394.0,390.98853
5480,388.0,390.65393
5481,396.0,390.94882
5482,385.0,390.38757
5483,397.0,390.9862
5484,388.0,390.318
5485,390.0,390.57556
5486,398.0,390.63953
5487,386.0,389.82172
5488,391.0,390.24637
5489,395.0,390.16263
5490,381.0,389.62515
5491,390.0,390.5835
5492,387.0,390.64835
5493,391.0,391.0537
5494,389.0,391.0597
5495,393.0,391.28857
5496,397.0,391.09845
5497,400.0,390.44272
5498,397.0,389.3808
5499,384.0,388.5342
5500,395.0,389.03802
5501,396.0,388.3756
5502,388.0,387.52847
5503,384.0,387.4761
5504,378.0,387.86237
5505,379.0,388.95822
5506,393.0,390.0647
5507,390.0,389.7386
5508,393.0,389.70956
5509,389.0,389.344
5510,382.0,389.38223
5511,390.0,390.20248
5512,394.0,390.225
5513,390.0,389.80557
5514,397.0,389.784
5515,398.0,388.9822
5516,392.0,387.98026
5517,392.0,387.5336
5518,400.0,387.03732
5519,395.0,385.59705
5520,391.0,384.55228
5521,388.0,383.83588
5522,396.0,383.37323
5523,382.0,381.97025
5524,394.0,381.96695
5525,367.0,380.62994
5526,388.0,382.14438
5527,382.0,381.49377
5528,383.0,381.43753
5529,380.0,381.26395
5530,377.0,381.4044
5531,376.0,381.89377
5532,390.0,382.54865
5533,374.0,381.72073
5534,379.0,382.5786
5535,386.0,382.97626
5536,388.0,382.6403
5537,377.0,382.0448
5538,374.0,382.60532
5539,387.0,383.56146
5540,385.0,383.1794
5541,389.0,382.97714
5542,389.0,382.30795
5543,380.0,381.5644
5544,387.0,381.73822
5545,386.0,381.15356
5546,378.0,380.61508
5547,388.0,380.90567
5548,384.0,380.11743
5549,381.0,379.68607
5550,379.0,379.54007
5551,381.0,379.6001
5552,384.0,379.44455
5553,376.0,378.93842
5554,376.0,379.26492
5555,380.0,379.6277
5556,384.0,379.58633
5557,386.0,379.09595
5558,382.0,378.32883
5559,383.0,377.9209
5560,379.0,377.35657
5561,378.0,377.17398
5562,372.0,377.0822
5563,364.0,377.6469
5564,372.0,379.16324
5565,381.0,379.95914
5566,378.0,379.84348
5567,374.0,380.04834
5568,383.0,380.7204
5569,386.0,380.46713
5570,383.0,379.85236
5571,383.0,379.50262
5572,380.0,379.11404
5573,378.0,379.01562
5574,383.0,379.1285
5575,383.0,378.69836
5576,377.0,378.22043
5577,386.0,378.35602
5578,384.0,377.50668
5579,381.0,376.78522
5580,378.0,376.31693
5581,380.0,376.12994
5582,389.0,375.69995
5583,380.0,374.22217
5584,381.0,373.5802
5585,372.0,372.75577
5586,371.0,372.83975
5587,372.0,373.04416
5588,377.0,373.1602
5589,375.0,372.73355
5590,381.0,372.48172
5591,380.0,371.53525
5592,364.0,370.59473
5593,373.0,371.32748
5594,372.0,371.14166
5595,362.0,371.0463
5596,373.0,372.05142
5597,364.0,371.94604
5598,367.0,372.82895
5599,383.0,373.4766
5600,375.0,372.41846
5601,372.0,372.13162
5602,381.0,372.14624
5603,372.0,371.16248
5604,368.0,371.06943
5605,368.0,371.4105
5606,371.0,371.78946
5607,369.0,371.87717
5608,369.0,372.19687
5609,379.0,372.5521
5610,372.0,371.83566
5611,375.0,371.8174
5612,363.0,371.4638
5613,367.0,372.40427
5614,369.0,373.00473
5615,372.0,373.4497
5616,363.0,373.61078
5617,361.0,374.78976
5618,362.0,376.32196
5619,373.0,377.9133
5620,372.0,378.45923
5621,365.0,379.1769
5622,371.0,380.75214
5623,366.0,381.83572
5624,387.0,383.59525
5625,390.0,383.21695
5626,390.0,382.4633
5627,392.0,381.6259
5628,393.0,380.4732
5629,387.0,379.08136
5630,384.0,378.2015
5631,377.0,377.55725
5632,371.0,377.61917
5633,372.0,378.35464
5634,367.0,379.0607
5635,377.0,380.4008
5636,377.0,380.77866
5637,377.0,380.77866
5638,372.0,381.1985
5639,375.0,382.22055
5640,368.0,383.02286
5641,382.0,384.69208
5642,380.0,384.99118
5643,390.0,385.54578
5644,386.0,385.05087
5645,387.0,384.94543
5646,388.0,384.71713
5647,384.0,384.3524
5648,381.0,384.39157
5649,385.0,384.7684
5650,390.0,384.74268
5651,387.0,384.15854
5652,387.0,383.8428
5653,389.0,383.492
5654,390.0,382.88004
5655,391.0,382.08893
5656,385.0,381.09882
5657,370.0,380.66537
5658,384.0,381.85043
5659,383.0,381.6116
5660,386.0,381.45737
5661,380.0,380.95264
5662,380.0,381.0585
5663,381.0,381.17612
5664,388.0,381.19568
5665,393.0,380.43967
5666,375.0,379.0441
5667,385.0,379.49344
5668,383.0,378.8816
5669,385.0,378.424
5670,383.0,377.69336
5671,386.0,377.10376
5672,384.0,376.1153
5673,368.0,375.23923
5674,383.0,376.0436
5675,379.0,375.2707
5676,378.0,374.85632
5677,381.0,374.50705
5678,383.0,373.7856
5679,384.0,372.7618
5680,383.0,371.51312
5681,376.0,370.23682
5682,366.0,369.59647
5683,357.0,369.99606
5684,365.0,371.44006
5685,367.0,372.15564
5686,367.0,372.7285
5687,374.0,373.365
5688,377.0,373.29446
5689,375.0,372.88272
5690,378.0,372.6475
5691,372.0,372.0528
5692,376.0,372.05865
5693,372.0,371.62073
5694,377.0,371.57858
5695,375.0,370.9762
5696,374.0,370.5291
5697,379.0,370.14346
5698,375.0,369.15942
5699,376.0,368.51047
5700,375.0,367.6783
5701,380.0,366.8648
5702,376.0,365.40533
5703,362.0,364.22815
5704,377.0,364.4757
5705,376.0,363.0841
5706,362.0,361.64902
5707,366.0,361.61002
5708,365.0,361.12225
5709,361.0,360.6914
5710,361.0,360.65714
5711,357.0,360.61905
5712,350.0,361.02115
5713,351.0,362.24573
5714,347.0,363.49527
5715,346.0,365.32806
5716,359.0,367.47562
5717,353.0,368.41736
5718,362.0,370.13043
5719,368.0,371.0338
5720,366.0,371.3709
5721,365.0,371.96768
5722,365.0,372.74188
5723,368.0,373.6021
5724,374.0,374.22458
5725,376.0,374.24954
5726,376.0,374.05505
5727,374.0,373.83896
5728,377.0,373.82108
5729,370.0,373.46786
5730,371.0,373.85318
5731,376.0,374.1702
5732,378.0,373.9669
5733,378.0,373.5188
5734,376.0,373.0209
5735,370.0,372.68988
5736,377.0,372.98877
5737,374.0,372.54306
5738,376.0,372.3812
5739,376.0,371.9791
5740,376.0,371.53232
5741,375.0,371.03592
5742,373.0,370.59546
5743,375.0,370.3283
5744,360.0,369.80923
5745,376.0,370.89917
5746,371.0,370.33243
5747,375.0,370.25824
5748,374.0,369.73138
5749,376.0,369.2571
5750,376.0,368.5079
5751,374.0,367.67545
5752,374.0,366.97272
5753,366.0,366.19193
5754,371.0,366.21326
5755,365.0,365.6814
5756,371.0,365.7571
5757,369.0,365.17456
5758,368.0,364.74954
5759,368.0,364.3884
5760,368.0,363.98712
5761,369.0,363.54126
5762,368.0,362.93475
5763,368.0,362.37198
5764,367.0,361.74667
5765,363.0,361.16296
5766,366.0,360.95886
5767,364.0,360.39874
5768,363.0,359.99863
5769,361.0,359.66516
5770,354.0,359.51685
5771,355.0,360.12985
5772,359.0,360.69983
5773,364.0,360.8887
5774,363.0,360.54303
5775,361.0,360.27005
5776,363.0,360.18893
5777,357.0,359.87662
5778,362.0,360.19623
5779,356.0,359.9958
5780,360.0,360.43976
5781,360.0,360.48862
5782,363.0,360.5429
5783,358.0,360.26993
5784,361.0,360.52216
5785,355.0,360.46906
5786,360.0,361.07672
5787,362.0,361.19638
5788,361.0,361.1071
5789,360.0,361.119
5790,364.0,361.24332
5791,364.0,360.93704
5792,365.0,360.93704
5793,365.0,360.4856
5794,365.0,359.984
5795,363.0,359.4267
5796,364.0,359.0297
5797,364.0,358.47745
5798,365.0,357.86386
5799,351.0,357.07095
5800,361.0,357.7455
5801,358.0,357.3839
5802,358.0,357.3155
5803,360.0,357.23947
5804,360.0,356.93274
5805,360.0,356.59195
5806,360.0,356.2133
5807,356.0,356.2133
5808,359.0,356.237
5809,358.0,355.93002
5810,358.0,355.70004
5811,359.0,355.44452
5812,358.0,355.04947
5813,358.0,354.72165
5814,346.0,354.35742
5815,356.0,355.286
5816,352.0,355.20667
5817,355.0,355.56296
5818,357.0,355.62552
5819,357.0,355.4728
5820,357.0,355.30313
5821,357.0,355.1146
5822,357.0,354.9051
5823,356.0,354.67233
5824,356.0,354.5248
5825,355.0,354.3609
5826,347.0,354.2899
5827,355.0,355.09985
5828,356.0,355.11096
5829,356.0,355.01218
5830,356.0,354.90244
5831,357.0,354.7805
5832,357.0,354.53387
5833,355.0,354.25986
5834,357.0,354.17764
5835,357.0,353.86404
5836,356.0,353.5156
5837,357.0,353.23956
5838,354.0,352.82175
5839,355.0,352.69086
5840,355.0,352.4343
5841,350.0,352.14923
5842,349.0,352.38803
5843,350.0,352.7645
5844,354.0,353.07166
5845,355.0,352.96854
5846,355.0,352.74283
5847,355.0,352.49203
5848,355.0,352.21338
5849,353.0,351.90378
5850,352.0,351.78198
5851,350.0,351.75775
5852,351.0,351.95306
5853,354.0,352.05896
5854,350.0,351.8433
5855,350.0,352.0481
5856,355.0,352.27567
5857,356.0,351.97296
5858,356.0,351.5255
5859,356.0,351.02835
5860,353.0,350.47595
5861,351.0,350.19553
5862,352.0,350.10614
5863,353.0,349.89572
5864,351.0,349.5508
5865,351.0,349.3898
5866,351.0,349.2109
5867,351.0,349.01212
5868,337.0,348.79123
5869,348.0,350.10135
5870,353.0,350.33484
5871,352.0,350.03873
5872,354.0,349.8208
5873,349.0,349.35645
5874,352.0,349.39606
5875,352.0,349.10672
5876,353.0,348.78525
5877,348.0,348.31696
5878,352.0,348.3522
5879,351.0,347.9469
5880,351.0,347.60767
5881,352.0,347.23074
5882,346.0,346.7008
5883,350.0,346.7787
5884,349.0,346.42078
5885,346.0,346.13422
5886,346.0,346.14914
5887,347.0,346.1657
5888,350.0,346.073
5889,349.0,345.63666
5890,351.0,345.26297
5891,350.0,344.62552
5892,347.0,344.02835
5893,349.0,343.69815
5894,349.0,343.10907
5895,341.0,342.45453
5896,346.0,342.61615
5897,349.0,342.24017
5898,349.0,341.4891
5899,348.0,340.65457
5900,344.0,339.83844
5901,345.0,339.37607
5902,346.0,338.7512
5903,341.0,337.94577
5904,343.0,337.6064
5905,342.0,337.00714
5906,343.0,336.45236
5907,342.0,335.72488
5908,339.0,335.02765
5909,338.0,334.5863
5910,342.0,334.20703
5911,340.0,333.34113
5912,339.0,332.60126
5913,335.0,331.8903
5914,339.0,331.54477
5915,340.0,330.71643
5916,338.0,329.68494
5917,335.0,328.76105
5918,334.0,328.06784
5919,335.0,327.40872
5920,332.0,326.56525
5921,332.0,325.9614
5922,337.0,325.29044
5923,333.0,323.98938
