no,raw,smooth
0,53.0,52.76576
1,55.0,52.739735
2,52.0,52.488594
3,53.0,52.54288
4,48.0,52.492092
5,53.0,52.991215
6,53.0,52.990242
7,53.0,52.98916
8,52.0,52.987957
9,53.0,53.097733
10,53.0,53.108593
11,53.0,53.120663
12,53.0,53.13407
13,53.0,53.14897
14,53.0,53.165527
15,53.0,53.18392
16,54.0,53.20436
17,57.0,53.115955
18,55.0,52.684395
19,54.0,52.427105
20,48.0,52.25234
21,52.0,52.724823
22,53.0,52.80536
23,53.0,52.783733
24,52.0,52.759705
25,53.0,52.844116
26,53.0,52.826797
27,53.0,52.807556
28,53.0,52.786175
29,52.0,52.76242
30,54.0,52.847134
31,55.0,52.719036
32,50.0,52.4656
33,52.0,52.739555
34,53.0,52.821728
35,53.0,52.80192
36,52.0,52.779915
37,53.0,52.866573
38,53.0,52.85175
39,52.0,52.835278
40,53.0,52.928085
41,53.0,52.920097
42,53.0,52.91122
43,53.0,52.90136
44,53.0,52.8904
45,54.0,52.878223
46,53.0,52.753582
47,53.0,52.726204
48,53.0,52.695786
49,53.0,52.661987
50,53.0,52.62443
51,53.0,52.582703
52,53.0,52.53634
53,48.0,52.48482
54,53.0,52.983135
55,52.0,52.981262
56,53.0,53.09029
57,53.0,53.100323
58,53.0,53.111473
59,54.0,53.123863
60,55.0,53.026516
61,53.0,52.80724
62,54.0,52.785824
63,53.0,52.650913
64,51.0,52.61213
65,48.0,52.791256
66,53.0,53.32362
67,53.0,53.35958
68,57.0,53.399536
69,50.0,52.999485
70,58.0,53.332764
71,50.0,52.814182
72,53.0,53.12687
73,53.0,53.14097
74,53.0,53.156635
75,53.0,53.17404
76,54.0,53.193382
77,53.0,53.103756
78,53.0,53.115288
79,53.0,53.1281
80,53.0,53.142338
81,53.0,53.158154
82,53.0,53.175728
83,53.0,53.195255
84,57.0,53.216953
85,51.0,52.796616
86,57.0,52.996243
87,50.0,52.55138
88,53.0,52.83487
89,53.0,52.816525
90,55.0,52.79614
91,53.0,52.551266
92,49.0,52.501408
93,52.0,52.890453
94,53.0,52.989395
95,53.0,52.98822
96,52.0,52.98691
97,53.0,53.09657
98,53.0,53.1073
99,53.0,53.119225
100,54.0,53.132473
101,53.0,53.03608
102,57.0,53.04009
103,48.0,52.600098
104,53.0,53.11122
105,53.0,53.12358
106,58.0,53.137314
107,55.0,52.59702
108,52.0,52.33002
109,48.0,52.36669
110,52.0,52.851883
111,53.0,52.946537
112,53.0,52.940598
113,53.0,52.934
114,53.0,52.926666
115,53.0,52.91852
116,53.0,52.90947
117,53.0,52.899414
118,56.0,52.88824
119,49.0,52.542492
120,57.0,52.936104
121,53.0,52.484562
122,49.0,52.42729
123,53.0,52.8081
124,53.0,52.78678
125,53.0,52.763092
126,53.0,52.73677
127,53.0,52.707527
128,53.0,52.675034
129,53.0,52.638927
130,53.0,52.598812
131,52.0,52.554237
132,53.0,52.61582
133,55.0,52.57314
134,51.0,52.30349
135,49.0,52.448326
136,53.0,52.831474
137,53.0,52.81275
138,53.0,52.79195
139,53.0,52.768837
140,52.0,52.743153
141,53.0,52.825726
142,53.0,52.806362
143,53.0,52.78485
144,53.0,52.76095
145,53.0,52.73439
146,53.0,52.70488
147,54.0,52.672092
148,53.0,52.524548
149,58.0,52.47172
150,48.0,51.85747
151,53.0,52.286083
152,49.0,52.20676
153,50.0,52.56307
154,52.0,52.847855
155,53.0,52.942062
156,52.0,52.935627
157,53.0,53.039585
158,52.0,53.043987
159,53.0,53.15999
160,53.0,53.17777
161,53.0,53.19752
162,53.0,53.21947
163,53.0,53.24386
164,53.0,53.270954
165,56.0,53.301064
166,51.0,53.001186
167,53.0,53.223545
168,54.0,53.248386
169,53.0,53.164875
170,53.0,53.183197
171,53.0,53.203556
172,53.0,53.226177
173,53.0,53.25131
174,53.0,53.279236
175,53.0,53.310265
176,53.0,53.34474
177,53.0,53.38305
178,53.0,53.425613
179,53.0,53.472904
180,58.0,53.52545
181,55.0,53.028282
182,49.0,52.809204
183,54.0,53.23245
184,53.0,53.147163
185,54.0,53.163517
186,53.0,53.070576
187,52.0,53.07842
188,53.0,53.198242
189,53.0,53.220272
190,54.0,53.24475
191,53.0,53.160835
192,53.0,53.178707
193,54.0,53.198566
194,54.0,53.10952
195,57.0,53.01058
196,53.0,52.56731
197,55.0,52.519238
198,49.0,52.2436
199,48.0,52.604
200,53.0,53.11556
201,54.0,53.1284
202,53.0,53.031555
203,53.0,53.035065
204,52.0,53.038963
205,54.0,53.154404
206,54.0,53.060448
207,53.0,52.956055
208,53.0,52.951176
209,54.0,52.945755
210,57.0,52.828617
211,52.0,52.36513
212,49.0,52.4057
213,57.0,52.78411
214,51.0,52.31568
215,48.0,52.461872
216,53.0,52.957638
217,53.0,52.952934
218,53.0,52.94771
219,54.0,52.9419
220,53.0,52.824333
221,53.0,52.804817
222,53.0,52.783134
223,53.0,52.75904
224,53.0,52.73227
225,53.0,52.702522
226,52.0,52.66947
227,53.0,52.74386
228,52.0,52.7154
229,57.0,52.79489
230,53.0,52.327656
231,47.0,52.252953
232,53.0,52.836613
233,53.0,52.818462
234,54.0,52.798294
235,52.0,52.664772
236,52.0,52.738636
237,53.0,52.820705
238,54.0,52.800785
239,57.0,52.667538
240,55.0,52.186153
241,51.0,51.873505
242,45.0,51.970566
243,52.0,52.745075
244,53.0,52.82786
245,55.0,52.80874
246,50.0,52.565266
247,52.0,52.850296
248,54.0,52.944775
249,53.0,52.827526
250,53.0,52.808365
251,53.0,52.787075
252,53.0,52.76342
253,52.0,52.737137
254,53.0,52.819042
255,53.0,52.79894
256,53.0,52.7766
257,53.0,52.75178
258,53.0,52.724205
259,53.0,52.69356
260,53.0,52.659515
261,55.0,52.621685
262,49.0,52.35743
263,52.0,52.730476
264,53.0,52.81164
265,53.0,52.790714
266,53.0,52.767464
267,53.0,52.741627
268,53.0,52.71292
269,54.0,52.681026
270,55.0,52.534473
271,52.0,52.26053
272,48.0,52.28948
273,53.0,52.76609
274,54.0,52.7401
275,53.0,52.600113
276,53.0,52.555683
277,53.0,52.506317
278,50.0,52.451466
279,55.0,52.72385
280,48.0,52.470947
281,53.0,52.96772
282,53.0,52.964134
283,54.0,52.96015
284,56.0,52.844612
285,53.0,52.49402
286,52.0,52.4378
287,48.0,52.486446
288,53.0,52.984943
289,53.0,52.983273
290,54.0,52.981415
291,53.0,52.86824
292,54.0,52.853603
293,52.0,52.726227
294,53.0,52.80692
295,55.0,52.78547
296,49.0,52.539413
297,54.0,52.932682
298,54.0,52.81409
299,53.0,52.682323
300,55.0,52.64703
301,51.0,52.38559
302,48.0,52.539547
303,53.0,53.043945
304,53.0,53.048832
305,53.0,53.05426
306,53.0,53.06029
307,53.0,53.066994
308,53.0,53.07444
309,52.0,53.082714
310,53.0,53.203014
311,56.0,53.225574
312,51.0,52.91731
313,54.0,53.13035
314,53.0,53.033722
315,53.0,53.03747
316,52.0,53.041637
317,53.0,53.157375
318,53.0,53.174866
319,54.0,53.194298
320,52.0,53.104774
321,53.0,53.227528
322,53.0,53.25281
323,53.0,53.280903
324,57.0,53.31212
325,52.0,52.902355
326,53.0,53.002617
327,55.0,53.00291
328,55.0,52.781013
329,55.0,52.534462
330,53.0,52.260513
331,48.0,52.17835
332,48.0,52.642612
333,54.0,53.15846
334,53.0,53.064953
335,53.0,53.072174
336,53.0,53.080196
337,53.0,53.089108
338,53.0,53.09901
339,53.0,53.110012
340,57.0,53.12224
341,51.0,52.691376
342,53.0,52.87931
343,53.0,52.865902
344,52.0,52.851006
345,52.0,52.945564
346,53.0,53.05063
347,53.0,53.056255
348,54.0,53.062508
349,53.0,52.958344
350,53.0,52.953716
351,53.0,52.948574
352,53.0,52.942863
353,53.0,52.936516
354,53.0,52.929466
355,53.0,52.92163
356,57.0,52.912926
357,48.0,52.458805
358,54.0,52.95423
359,55.0,52.838036
360,55.0,52.59782
361,48.0,52.330914
362,49.0,52.81213
363,53.0,53.2357
364,53.0,53.26189
365,54.0,53.290993
366,53.0,53.212215
367,53.0,53.235798
368,53.0,53.262
369,53.0,53.291115
370,53.0,53.323463
371,53.0,53.359406
372,59.0,53.39934
373,53.0,52.777046
374,52.0,52.752277
375,52.0,52.835865
376,56.0,52.92874
377,48.0,52.587494
378,53.0,53.097218
379,53.0,53.10802
380,53.0,53.120026
381,54.0,53.133366
382,52.0,53.03707
383,54.0,53.1523
384,54.0,53.058113
385,53.0,52.95346
386,53.0,52.94829
387,53.0,52.94255
388,55.0,52.93617
389,50.0,52.706856
390,55.0,53.007618
391,52.0,52.786243
392,52.0,52.873604
393,52.0,52.970673
394,53.0,53.078526
395,53.0,53.087254
396,54.0,53.09695
397,53.0,52.996613
398,53.0,52.99624
399,53.0,52.995823
400,53.0,52.99536
401,53.0,52.994846
402,53.0,52.994278
403,53.0,52.993645
404,53.0,52.992943
405,52.0,52.99216
406,53.0,53.1024
407,53.0,53.11378
408,54.0,53.126427
409,52.0,53.02936
410,53.0,53.143738
411,53.0,53.15971
412,53.0,53.17746
413,53.0,53.197178
414,53.0,53.21909
415,53.0,53.243435
416,54.0,53.270485
417,58.0,53.189426
418,53.0,52.65492
419,54.0,52.616577
420,50.0,52.462864
421,50.0,52.73652
422,52.0,53.040577
423,53.0,53.156197
424,53.0,53.173553
425,55.0,53.19284
426,50.0,52.992046
427,54.0,53.324497
428,53.0,53.24944
429,54.0,53.277157
430,53.0,53.196842
431,53.0,53.218716
432,53.0,53.24302
433,53.0,53.270023
434,53.0,53.30003
435,54.0,53.33337
436,53.0,53.2593
437,54.0,53.288113
438,54.0,53.209015
439,54.0,53.121128
440,53.0,53.023476
441,57.0,53.026085
442,48.0,52.58454
443,53.0,53.093937
444,52.0,53.104378
445,53.0,53.227085
446,53.0,53.25232
447,54.0,53.280357
448,53.0,53.200397
449,55.0,53.222668
450,53.0,53.02519
451,52.0,53.02799
452,52.0,53.142212
453,53.0,53.269123
454,54.0,53.299026
455,53.0,53.22114
456,53.0,53.245716
457,57.0,53.27302
458,50.0,52.858913
459,53.0,53.17657
460,53.0,53.196194
461,58.0,53.217995
462,55.0,52.686665
463,51.0,52.42963
464,49.0,52.58848
465,52.0,52.9872
466,53.0,53.096893
467,58.0,53.107662
468,47.0,52.56407
469,53.0,53.1823
470,53.0,53.202557
471,54.0,53.225063
472,54.0,53.138958
473,55.0,53.043285
474,52.0,52.825874
475,53.0,52.917637
476,53.0,52.90849
477,53.0,52.898323
478,52.0,52.887028
479,56.0,52.985588
480,52.0,52.650658
481,50.0,52.722954
482,53.0,53.025505
483,58.0,53.02834
484,48.0,52.475933
485,53.0,52.973263
486,53.0,52.970295
487,53.0,52.966995
488,53.0,52.96333
489,54.0,52.959255
490,53.0,52.843616
491,53.0,52.826244
492,53.0,52.806942
493,53.0,52.785492
494,53.0,52.76166
495,53.0,52.735184
496,53.0,52.70576
497,53.0,52.67307
498,53.0,52.636745
499,57.0,52.596386
500,57.0,52.107098
501,48.0,52.563446
502,53.0,52.514942
503,53.0,52.46105
504,53.0,52.401165
505,52.0,52.44574
506,53.0,52.44574
507,55.0,52.38416
508,49.0,52.09351
509,52.0,52.437233
510,53.0,52.485813
511,52.0,52.428684
512,48.0,52.47632
513,54.0,52.97369
514,54.0,52.859653
515,53.0,52.73295
516,55.0,52.703278
517,48.0,52.448086
518,53.0,52.942318
519,53.0,52.93591
520,53.0,52.92879
521,53.0,52.920883
522,53.0,52.912094
523,58.0,52.90233
524,48.0,52.335922
525,53.0,52.817696
526,52.0,52.797443
527,53.0,52.886047
528,54.0,52.87339
529,53.0,52.74821
530,53.0,52.720238
531,54.0,52.689156
532,52.0,52.543507
533,49.0,52.603897
534,53.0,53.00433
535,53.0,53.004814
536,53.0,53.005352
537,52.0,53.005947
538,53.0,53.117718
539,57.0,53.1308
540,55.0,52.700886
541,53.0,52.44543
542,48.0,52.383816
543,52.0,52.870907
544,53.0,52.967674
545,53.0,52.964085
546,53.0,52.960094
547,53.0,52.95566
548,52.0,52.950737
549,53.0,53.056374
550,54.0,53.06264
551,57.0,52.95849
552,55.0,52.509434
553,53.0,52.232704
554,48.0,52.14745
555,49.0,52.60828
556,53.0,53.0092
557,54.0,53.010227
558,52.0,52.900253
559,54.0,53.000282
560,54.0,52.889202
561,53.0,52.76578
562,52.0,52.739758
563,53.0,52.821953
564,52.0,52.802174
565,53.0,52.891304
566,52.0,52.87923
567,53.0,52.976925
568,53.0,52.97436
569,53.0,52.971516
570,57.0,52.968353
571,53.0,52.520393
572,48.0,52.467106
573,52.0,52.963455
574,53.0,53.070507
575,54.0,53.078342
576,54.0,52.975937
577,53.0,52.862152
578,52.0,52.846836
579,55.0,52.94093
580,51.0,52.712147
581,53.0,52.90239
582,53.0,52.89155
583,53.0,52.8795
584,53.0,52.866116
585,53.0,52.851242
586,53.0,52.834717
587,53.0,52.816353
588,55.0,52.79595
589,48.0,52.55106
590,52.0,53.056736
591,53.0,53.174152
592,53.0,53.193504
593,53.0,53.215008
594,54.0,53.2389
595,59.0,53.15433
596,54.0,52.50481
597,52.0,52.338676
598,51.0,52.37631
599,49.0,52.529236
600,57.0,52.92137
601,53.0,52.46819
602,48.0,52.4091
603,53.0,52.899002
604,57.0,52.887783
605,48.0,52.43087
606,53.0,52.92319
607,53.0,52.914658
608,53.0,52.905178
609,53.0,52.894646
610,53.0,52.882942
611,57.0,52.869938
612,48.0,52.41104
613,53.0,52.90116
614,53.0,52.890182
615,53.0,52.877983
616,52.0,52.86443
617,53.0,52.96048
618,53.0,52.956093
619,53.0,52.951218
620,55.0,52.9458
621,52.0,52.717556
622,53.0,52.797283
623,52.0,52.77476
624,53.0,52.860847
625,53.0,52.845387
626,53.0,52.82821
627,57.0,52.809124
628,48.0,52.34347
629,54.0,52.82608
630,55.0,52.695644
631,52.0,52.439606
632,48.0,52.488453
633,53.0,52.98717
634,53.0,52.98575
635,53.0,52.98417
636,54.0,52.98241
637,52.0,52.869343
638,53.0,52.96594
639,53.0,52.962154
640,57.0,52.95795
641,55.0,52.508835
642,53.0,52.23204
643,51.0,52.146713
644,48.0,52.274128
645,53.0,52.749035
646,53.0,52.721153
647,54.0,52.690174
648,53.0,52.54464
649,53.0,52.494045
650,53.0,52.43783
651,52.0,52.37537
652,53.0,52.41708
653,51.0,52.352314
654,49.0,52.502575
655,53.0,52.89175
656,54.0,52.879726
657,53.0,52.755253
658,53.0,52.72806
659,53.0,52.69785
660,56.0,52.66428
661,51.0,52.293648
662,48.0,52.43739
663,53.0,52.930435
664,54.0,52.922707
665,53.0,52.803005
666,53.0,52.78112
667,53.0,52.7568
668,53.0,52.729782
669,57.0,52.69976
670,48.0,52.22196
671,48.0,52.691067
672,52.0,52.767853
673,53.0,52.74206
674,53.0,52.74206
675,53.0,52.713406
676,51.0,52.681564
677,52.0,52.86841
678,54.0,52.964897
679,52.0,52.849884
680,53.0,52.944317
681,53.0,52.938133
682,54.0,52.931263
683,53.0,52.812515
684,54.0,52.791687
685,57.0,52.65743
686,55.0,52.174923
687,48.0,51.861027
688,49.0,52.29003
689,52.0,52.65559
690,54.0,52.728436
691,55.0,52.58715
692,50.0,52.319057
693,50.0,52.576733
694,53.0,52.863037
695,53.0,52.84782
696,53.0,52.830914
697,53.0,52.81213
698,53.0,52.791256
699,53.0,52.768066
700,53.0,52.7423
701,52.0,52.713665
702,54.0,52.79296
703,52.0,52.658844
704,52.0,52.732048
705,53.0,52.81339
706,53.0,52.792656
707,53.0,52.76962
708,51.0,52.744022
709,53.0,52.937805
710,52.0,52.930897
711,53.0,53.03433
712,53.0,53.038143
713,53.0,53.042385
714,53.0,53.047096
715,53.0,53.05233
716,53.0,53.058147
717,53.0,53.06461
718,53.0,53.07179
719,53.0,53.07977
720,54.0,53.088634
721,55.0,52.98737
722,52.0,52.763744
723,52.0,52.848606
724,52.0,52.942898
725,53.0,53.047665
726,53.0,53.052963
727,53.0,53.05885
728,53.0,53.06539
729,53.0,53.07266
730,57.0,53.080734
731,55.0,52.64526
732,52.0,52.383625
733,48.0,52.42625
734,53.0,52.91806
735,55.0,52.90896
736,49.0,52.67662
737,53.0,53.085133
738,53.0,53.094593
739,57.0,53.105106
740,50.0,52.67234
741,52.0,52.96927
742,53.0,53.076965
743,53.0,53.085518
744,53.0,53.095024
745,54.0,53.105583
746,54.0,53.006203
747,54.0,52.89578
748,54.0,52.773087
749,53.0,52.63676
750,56.0,52.5964
751,55.0,52.218227
752,48.0,51.90914
753,49.0,52.343494
754,52.0,52.714993
755,57.0,52.794437
756,47.0,52.327152
757,52.0,52.91906
758,53.0,53.02118
759,53.0,53.023537
760,53.0,53.026154
761,53.0,53.02906
762,53.0,53.03229
763,53.0,53.03588
764,53.0,53.03987
765,53.0,53.044304
766,53.0,53.04923
767,58.0,53.0547
768,50.0,52.505222
769,52.0,52.78358
770,53.0,52.870647
771,55.0,52.856277
772,48.0,52.618088
773,53.0,53.13121
774,58.0,53.14579
775,55.0,52.606434
776,52.0,52.340485
777,48.0,52.37832
778,52.0,52.8648
779,53.0,52.960888
780,55.0,52.956543
781,53.0,52.729492
782,52.0,52.699436
783,52.0,52.777153
784,52.0,52.863503
785,54.0,52.95945
786,53.0,52.843834
787,57.0,52.826485
788,49.0,52.362762
789,53.0,52.736404
790,52.0,52.70712
791,53.0,52.78569
792,53.0,52.76188
793,53.0,52.735424
794,53.0,52.706028
795,53.0,52.673367
796,52.0,52.637077
797,53.0,52.707863
798,53.0,52.675407
799,53.0,52.639343
800,53.0,52.599274
801,52.0,52.554752
802,53.0,52.616394
803,52.0,52.573772
804,52.0,52.637527
805,53.0,52.708363
806,53.0,52.67596
807,53.0,52.639957
808,53.0,52.599957
809,53.0,52.55551
810,56.0,52.506126
811,51.0,52.11792
812,49.0,52.242138
813,52.0,52.602375
814,53.0,52.669308
815,53.0,52.63257
816,57.0,52.591743
817,48.0,52.101936
818,55.0,52.55771
819,54.0,52.286346
820,52.0,52.09594
821,50.0,52.1066
822,48.0,52.34067
823,53.0,52.82297
824,53.0,52.803303
825,53.0,52.78145
826,52.0,52.757168
827,53.0,52.841297
828,52.0,52.823666
829,53.0,52.915184
830,53.0,52.90576
831,53.0,52.895294
832,57.0,52.883663
833,48.0,52.426292
834,54.0,52.918106
835,52.0,52.797894
836,53.0,52.886547
837,52.0,52.873943
838,53.0,52.97105
839,53.0,52.967834
840,57.0,52.964264
841,53.0,52.51585
842,49.0,52.46206
843,52.0,52.846733
844,52.0,52.940815
845,53.0,53.04535
846,53.0,53.050392
847,53.0,53.055992
848,54.0,53.062214
849,52.0,52.958015
850,55.0,53.06446
851,52.0,52.849403
852,53.0,52.943783
853,53.0,52.93754
854,53.0,52.9306
855,53.0,52.92289
856,53.0,52.914326
857,53.0,52.904808
858,53.0,52.894234
859,53.0,52.882484
860,53.0,52.86943
861,53.0,52.854927
862,54.0,52.83881
863,57.0,52.70979
864,53.0,52.2331
865,51.0,52.147892
866,50.0,52.27544
867,50.0,52.528267
868,53.0,52.809185
869,53.0,52.787987
870,58.0,52.76443
871,52.0,52.182705
872,47.0,52.203007
873,53.0,52.78112
874,53.0,52.7568
875,53.0,52.729782
876,53.0,52.69976
877,52.0,52.6664
878,52.0,52.740444
879,52.0,52.822716
880,53.0,52.914127
881,53.0,52.904587
882,56.0,52.89399
883,48.0,52.54888
884,53.0,53.054314
885,54.0,53.060352
886,53.0,52.955948
887,53.0,52.951057
888,53.0,52.94562
889,53.0,52.939583
890,52.0,52.932873
891,53.0,53.036526
892,53.0,53.040585
893,53.0,53.045097
894,54.0,53.05011
895,53.0,52.944565
896,53.0,52.938408
897,57.0,52.93157
898,53.0,52.47952
899,49.0,52.42169
900,58.0,52.80188
901,52.0,52.22431
902,48.0,52.249237
903,53.0,52.72138
904,53.0,52.690422
905,53.0,52.65603
906,53.0,52.617813
907,57.0,52.57535
908,55.0,52.083725
909,52.0,51.759697
910,48.0,51.732998
911,49.0,52.147778
912,52.0,52.49753
913,57.0,52.552814
914,49.0,52.058685
915,48.0,52.39854
916,53.0,52.887268
917,54.0,52.874744
918,53.0,52.749714
919,53.0,52.721905
920,53.0,52.69101
921,54.0,52.65668
922,53.0,52.507423
923,54.0,52.452694
924,53.0,52.28077
925,53.0,52.200855
926,53.0,52.112064
927,53.0,52.01341
928,53.0,51.90379
929,54.0,51.78199
930,47.0,51.535545
931,49.0,52.039497
932,48.0,52.37722
933,53.0,52.86358
934,53.0,52.848423
935,53.0,52.831585
936,53.0,52.812874
937,53.0,52.792084
938,53.0,52.768986
939,52.0,52.74332
940,52.0,52.825912
941,54.0,52.917683
942,53.0,52.797424
943,53.0,52.774918
944,53.0,52.749912
945,53.0,52.722126
946,51.0,52.691254
947,52.0,52.879173
948,53.0,52.97686
949,54.0,52.974293
950,53.0,52.860325
951,54.0,52.844807
952,57.0,52.71645
953,53.0,52.2405
954,51.0,52.156116
955,48.0,52.284576
956,52.0,52.760643
957,53.0,52.845158
958,53.0,52.827957
959,53.0,52.808846
960,57.0,52.78761
961,53.0,52.319565
962,50.0,52.243965
963,49.0,52.493298
964,53.0,52.881443
965,53.0,52.86827
966,53.0,52.853638
967,53.0,52.837376
968,52.0,52.81931
969,53.0,52.910343
970,53.0,52.900383
971,53.0,52.889317
972,53.0,52.87702
973,53.0,52.86336
974,53.0,52.848183
975,53.0,52.831318
976,53.0,52.812576
977,55.0,52.79175
978,54.0,52.54639
979,48.0,52.384876
980,53.0,52.872086
981,53.0,52.857876
982,53.0,52.842087
983,52.0,52.824543
984,53.0,52.91616
985,53.0,52.90685
986,53.0,52.8965
987,54.0,52.885002
988,53.0,52.761112
989,53.0,52.73457
990,55.0,52.70508
991,51.0,52.45009
992,48.0,52.611214
993,57.0,53.123573
994,53.0,52.69286
995,49.0,52.658733
996,57.0,53.065258
997,55.0,52.628063
998,52.0,52.364517
999,48.0,52.405018
1000,52.0,52.894466
1001,53.0,52.99385
1002,54.0,52.993168
1003,53.0,52.881298
1004,53.0,52.86811
1005,53.0,52.85346
1006,53.0,52.837177
1007,53.0,52.819088
1008,53.0,52.79899
1009,57.0,52.776657
1010,49.0,52.307396
1011,52.0,52.674885
1012,53.0,52.749874
1013,53.0,52.722084
1014,52.0,52.691208
1015,53.0,52.76801
1016,53.0,52.742233
1017,53.0,52.713596
1018,53.0,52.681778
1019,54.0,52.646423
1020,55.0,52.496025
1021,52.0,52.217808
1022,48.0,52.24201
1023,53.0,52.713345
1024,53.0,52.681496
1025,55.0,52.64611
1026,48.0,52.384567
1027,53.0,52.871742
1028,52.0,52.857494
1029,53.0,52.95277
1030,53.0,52.947525
1031,52.0,52.941696
1032,53.0,53.04633
1033,54.0,53.05148
1034,53.0,52.946087
1035,53.0,52.940098
1036,53.0,52.933445
1037,53.0,52.926052
1038,53.0,52.91784
1039,53.0,52.908714
1040,54.0,52.898575
1041,59.0,52.776196
1042,49.0,52.084663
1043,53.0,52.427402
1044,48.0,52.363785
1045,53.0,52.84865
1046,53.0,52.831837
1047,54.0,52.813152
1048,53.0,52.68128
1049,53.0,52.645866
1050,55.0,52.60652
1051,52.0,52.34058
1052,48.0,52.37842
1053,53.0,52.864914
1054,52.0,52.849907
1055,53.0,52.94434
1056,53.0,52.938156
1057,53.0,52.931286
1058,52.0,52.923653
1059,57.0,53.02628
1060,48.0,52.584755
1061,54.0,53.094173
1062,53.0,52.993526
1063,53.0,52.99281
1064,54.0,52.992012
1065,53.0,52.880013
1066,53.0,52.866684
1067,53.0,52.851875
1068,53.0,52.83542
1069,53.0,52.817135
1070,52.0,52.796818
1071,53.0,52.885353
1072,53.0,52.872616
1073,51.0,52.858463
1074,52.0,53.06496
1075,56.0,53.18329
1076,52.0,52.870323
1077,53.0,52.967026
1078,53.0,52.963364
1079,55.0,52.959297
1080,55.0,52.732555
1081,51.0,52.480618
1082,52.0,52.645134
1083,53.0,52.716816
1084,53.0,52.685352
1085,56.0,52.650394
1086,52.0,52.27822
1087,52.0,52.309135
1088,49.0,52.343483
1089,52.0,52.71498
1090,53.0,52.794426
1091,53.0,52.771587
1092,53.0,52.746212
1093,51.0,52.718018
1094,53.0,52.908913
1095,53.0,52.898796
1096,53.0,52.887554
1097,53.0,52.87506
1098,53.0,52.861183
1099,53.0,52.84576
1100,53.0,52.828625
1101,53.0,52.809586
1102,53.0,52.78843
1103,53.0,52.764923
1104,54.0,52.738808
1105,52.0,52.598675
1106,53.0,52.665195
1107,53.0,52.628
1108,52.0,52.586666
1109,52.0,52.65185
1110,53.0,52.72428
1111,51.0,52.69365
1112,52.0,52.881836
1113,53.0,52.97982
1114,53.0,52.97758
1115,53.0,52.975094
1116,53.0,52.97233
1117,52.0,52.969257
1118,53.0,53.076954
1119,54.0,53.085506
1120,55.0,52.983894
1121,51.0,52.759884
1122,53.0,52.95543
1123,53.0,52.950478
1124,57.0,52.944977
1125,48.0,52.49442
1126,53.0,52.9938
1127,53.0,52.993114
1128,54.0,52.99235
1129,56.0,52.88039
1130,55.0,52.53377
1131,53.0,52.259747
1132,50.0,52.177498
1133,49.0,52.419445
1134,53.0,52.799385
1135,53.0,52.777096
1136,57.0,52.75233
1137,48.0,52.28037
1138,53.0,52.755966
1139,58.0,52.728855
1140,54.0,52.143173
1141,43.0,51.93686
1142,52.0,52.929848
1143,53.0,53.033165
1144,53.0,53.036854
1145,53.0,53.04095
1146,53.0,53.0455
1147,54.0,53.05056
1148,53.0,52.94507
1149,53.0,52.93897
1150,53.0,52.93219
1151,53.0,52.92466
1152,57.0,52.91629
1153,48.0,52.462543
1154,53.0,52.958385
1155,53.0,52.953766
1156,54.0,52.94863
1157,52.0,52.831814
1158,53.0,52.92424
1159,53.0,52.915825
1160,53.0,52.906475
1161,53.0,52.896088
1162,53.0,52.884544
1163,53.0,52.87172
1164,53.0,52.857468
1165,53.0,52.841633
1166,53.0,52.82404
1167,53.0,52.80449
1168,55.0,52.78277
1169,53.0,52.53641
1170,52.0,52.484905
1171,49.0,52.538784
1172,54.0,52.931984
1173,53.0,52.813316
1174,57.0,52.792576
1175,53.0,52.325085
1176,52.0,52.250095
1177,48.0,52.277885
1178,53.0,52.75321
1179,53.0,52.72579
1180,53.0,52.695324
1181,53.0,52.661472
1182,53.0,52.62386
1183,53.0,52.58207
1184,55.0,52.535637
1185,49.0,52.26182
1186,53.0,52.624245
1187,53.0,52.582497
1188,53.0,52.53611
1189,53.0,52.48457
1190,48.0,52.427303
1191,53.0,52.919228
1192,53.0,52.910255
1193,53.0,52.900288
1194,53.0,52.88921
1195,53.0,52.876904
1196,53.0,52.863228
1197,53.0,52.848034
1198,53.0,52.83115
1199,58.0,52.812393
1200,50.0,52.235996
1201,48.0,52.484444
1202,53.0,52.982716
1203,53.0,52.980797
1204,53.0,52.978664
1205,57.0,52.976295
1206,48.0,52.529217
1207,53.0,53.032467
1208,52.0,53.036076
1209,53.0,53.151196
1210,53.0,53.168
1211,53.0,53.18667
1212,54.0,53.207413
1213,53.0,53.119347
1214,52.0,53.13261
1215,54.0,53.258457
1216,52.0,53.176064
1217,54.0,53.30674
1218,57.0,53.22971
1219,55.0,52.81079
1220,53.0,52.567547
1221,53.0,52.5195
1222,48.0,52.466114
1223,54.0,52.962353
1224,53.0,52.847057
1225,52.0,52.830067
1226,53.0,52.9223
1227,52.0,52.913666
1228,53.0,53.015186
1229,58.0,53.016876
1230,52.0,52.4632
1231,49.0,52.514668
1232,53.0,52.905186
1233,53.0,52.894653
1234,53.0,52.88295
1235,53.0,52.869946
1236,53.0,52.855495
1237,53.0,52.839443
1238,53.0,52.821606
1239,53.0,52.801785
1240,52.0,52.779762
1241,53.0,52.8664
1242,52.0,52.85156
1243,53.0,52.94618
1244,52.0,52.9402
1245,52.0,53.044666
1246,53.0,53.16074
1247,57.0,53.1786
1248,52.0,52.754
1249,53.0,52.83778
1250,53.0,52.81976
1251,53.0,52.799736
1252,53.0,52.77749
1253,53.0,52.75277
1254,51.0,52.725304
1255,52.0,52.917007
1256,53.0,53.018898
1257,53.0,53.021
1258,53.0,53.023335
1259,58.0,53.02593
1260,52.0,52.473255
1261,49.0,52.52584
1262,53.0,52.917603
1263,61.0,52.90845
1264,50.0,52.00939
1265,51.0,52.23266
1266,48.0,52.369625
1267,53.0,52.85514
1268,53.0,52.839046
1269,53.0,52.821167
1270,55.0,52.8013
1271,48.0,52.557003
1272,53.0,53.06334
1273,53.0,53.07038
1274,53.0,53.078205
1275,54.0,53.0869
1276,53.0,52.985443
1277,53.0,52.98383
1278,53.0,52.982037
1279,57.0,52.98004
1280,48.0,52.53338
1281,54.0,53.03709
1282,53.0,52.9301
1283,53.0,52.922337
1284,52.0,52.913708
1285,53.0,53.015232
1286,57.0,53.016926
1287,51.0,52.574364
1288,53.0,52.749294
1289,57.0,52.72144
1290,52.0,52.246044
1291,48.0,52.273384
1292,53.0,52.748207
1293,53.0,52.720234
1294,53.0,52.68915
1295,55.0,52.654613
1296,48.0,52.394016
1297,52.0,52.882244
1298,53.0,52.98027
1299,53.0,52.97808
1300,53.0,52.975647
1301,53.0,52.972942
1302,55.0,52.969936
1303,52.0,52.744377
1304,53.0,52.827087
1305,52.0,52.807877
1306,54.0,52.89764
1307,57.0,52.775154
1308,55.0,52.30573
1309,52.0,52.006367
1310,48.0,52.007076
1311,54.0,52.45231
1312,48.0,52.280342
1313,53.0,52.75594
1314,53.0,52.728825
1315,53.0,52.698696
1316,54.0,52.665222
1317,53.0,52.516914
1318,54.0,52.46324
1319,54.0,52.292492
1320,50.0,52.102768
1321,47.0,52.33641
1322,53.0,52.929344
1323,53.0,52.921497
1324,53.0,52.912777
1325,53.0,52.903088
1326,53.0,52.892323
1327,53.0,52.88036
1328,52.0,52.86707
1329,53.0,52.96341
1330,53.0,52.959347
1331,53.0,52.954834
1332,53.0,52.949818
1333,53.0,52.944244
1334,54.0,52.938053
1335,55.0,52.820057
1336,49.0,52.577843
1337,54.0,52.97538
1338,53.0,52.861534
1339,53.0,52.84615
1340,53.0,52.829056
1341,52.0,52.810062
1342,53.0,52.90007
1343,53.0,52.88897
1344,53.0,52.876637
1345,53.0,52.86293
1346,53.0,52.847702
1347,53.0,52.830784
1348,54.0,52.811985
1349,57.0,52.679985
1350,52.0,52.199986
1351,53.0,52.222206
1352,52.0,52.135788
1353,51.0,52.150875
1354,51.0,52.27875
1355,48.0,52.420837
1356,53.0,52.912045
1357,52.0,52.902275
1358,54.0,53.00253
1359,51.0,52.891697
1360,53.0,53.10189
1361,52.0,53.113213
1362,53.0,53.236904
1363,54.0,53.26323
1364,53.0,53.181366
1365,53.0,53.20152
1366,53.0,53.22391
1367,57.0,53.24879
1368,52.0,52.83199
1369,53.0,52.924435
1370,53.0,52.916042
1371,53.0,52.906715
1372,53.0,52.896355
1373,53.0,52.884842
1374,53.0,52.872047
1375,52.0,52.857834
1376,54.0,52.953148
1377,53.0,52.83683
1378,53.0,52.818703
1379,57.0,52.79856
1380,52.0,52.331734
1381,48.0,52.368595
1382,53.0,52.853996
1383,53.0,52.837776
1384,52.0,52.81975
1385,53.0,52.910835
1386,52.0,52.900932
1387,53.0,53.001038
1388,53.0,53.001156
1389,53.0,53.001286
1390,57.0,53.00143
1391,50.0,52.557144
1392,53.0,52.841274
1393,53.0,52.82364
1394,53.0,52.804047
1395,53.0,52.782276
1396,57.0,52.758087
1397,55.0,52.286762
1398,52.0,51.985294
1399,48.0,51.98366
1400,52.0,52.426292
1401,48.0,52.47366
1402,53.0,52.970734
1403,53.0,52.967484
1404,53.0,52.96387
1405,53.0,52.959858
1406,57.0,52.9554
1407,48.0,52.506
1408,53.0,53.006668
1409,55.0,53.007412
1410,53.0,52.786015
1411,52.0,52.76224
1412,54.0,52.846935
1413,54.0,52.718815
1414,53.0,52.57646
1415,53.0,52.529404
1416,55.0,52.477116
1417,48.0,52.196796
1418,54.0,52.66311
1419,52.0,52.514565
1420,53.0,52.57174
1421,52.0,52.52416
1422,55.0,52.582397
1423,48.0,52.313778
1424,53.0,52.793087
1425,53.0,52.7701
1426,54.0,52.744556
1427,53.0,52.60506
1428,53.0,52.56118
1429,52.0,52.512424
1430,53.0,52.569363
1431,52.0,52.521515
1432,56.0,52.57946
1433,47.0,52.1994
1434,53.0,52.777115
1435,53.0,52.752354
1436,53.0,52.72484
1437,53.0,52.694267
1438,55.0,52.6603
1439,51.0,52.400337
1440,56.0,52.555935
1441,52.0,52.173264
1442,52.0,52.192516
1443,47.0,52.21391
1444,49.0,52.793232
1445,53.0,53.214703
1446,53.0,53.23856
1447,54.0,53.265068
1448,58.0,53.18341
1449,51.0,52.648235
1450,52.0,52.831375
1451,53.0,52.92375
1452,53.0,52.915283
1453,53.0,52.905872
1454,55.0,52.895416
1455,50.0,52.661575
1456,53.0,52.957306
1457,53.0,52.952564
1458,53.0,52.947296
1459,53.0,52.941444
1460,53.0,52.93494
1461,53.0,52.927715
1462,53.0,52.919685
1463,54.0,52.910763
1464,54.0,52.789738
1465,52.0,52.655262
1466,53.0,52.72807
1467,53.0,52.697857
1468,54.0,52.664288
1469,53.0,52.515873
1470,50.0,52.462082
1471,52.0,52.73565
1472,53.0,52.817387
1473,53.0,52.7971
1474,53.0,52.77456
1475,53.0,52.74951
1476,53.0,52.721684
1477,53.0,52.69076
1478,53.0,52.656403
1479,53.0,52.61823
1480,53.0,52.575813
1481,53.0,52.528683
1482,50.0,52.476315
1483,53.0,52.75146
1484,54.0,52.723846
1485,57.0,52.58205
1486,51.0,52.091167
1487,51.0,52.21241
1488,48.0,52.347126
1489,53.0,52.830143
1490,53.0,52.81127
1491,53.0,52.790302
1492,53.0,52.767006
1493,53.0,52.74112
1494,53.0,52.712357
1495,53.0,52.680397
1496,53.0,52.644886
1497,55.0,52.60543
1498,52.0,52.339367
1499,52.0,52.377075
1500,48.0,52.418972
1501,54.0,52.90997
1502,51.0,52.788853
1503,53.0,52.987617
1504,53.0,52.986244
1505,53.0,52.98472
1506,52.0,52.98302
1507,53.0,53.092247
1508,54.0,53.1025
1509,53.0,53.002777
1510,53.0,53.003086
1511,53.0,53.003433
1512,53.0,53.00382
1513,58.0,53.004246
1514,48.0,52.449165
1515,53.0,52.94352
1516,52.0,52.93725
1517,57.0,53.041386
1518,51.0,52.60154
1519,53.0,52.77949
1520,53.0,52.754993
1521,53.0,52.72777
1522,53.0,52.697525
1523,53.0,52.663918
1524,53.0,52.62658
1525,53.0,52.58509
1526,53.0,52.53899
1527,53.0,52.48777
1528,57.0,52.43086
1529,53.0,51.923176
1530,48.0,51.80353
1531,51.0,52.226147
1532,48.0,52.36239
1533,56.0,52.8471
1534,48.0,52.49678
1535,54.0,52.996426
1536,53.0,52.88492
1537,53.0,52.872135
1538,53.0,52.85793
1539,53.0,52.842144
1540,53.0,52.824608
1541,53.0,52.805122
1542,53.0,52.78347
1543,52.0,52.759415
1544,52.0,52.843796
1545,53.0,52.93755
1546,53.0,52.930614
1547,52.0,52.92291
1548,53.0,53.025455
1549,58.0,53.028286
1550,48.0,52.475876
1551,53.0,52.973198
1552,54.0,52.970222
1553,53.0,52.8558
1554,53.0,52.83978
1555,53.0,52.82198
1556,53.0,52.8022
1557,53.0,52.780224
1558,57.0,52.755806
1559,53.0,52.28423
1560,48.0,52.2047
1561,54.0,52.67189
1562,55.0,52.524323
1563,48.0,52.24925
1564,53.0,52.72139
1565,55.0,52.690434
1566,48.0,52.433815
1567,53.0,52.926464
1568,53.0,52.918297
1569,53.0,52.90922
1570,53.0,52.89914
1571,53.0,52.887936
1572,54.0,52.87549
1573,54.0,52.75054
1574,55.0,52.611713
1575,53.0,52.34635
1576,51.0,52.273727
1577,49.0,52.415257
1578,57.0,52.79473
1579,48.0,52.32748
1580,53.0,52.808315
1581,53.0,52.787018
1582,52.0,52.763355
1583,53.0,52.848175
1584,53.0,52.831306
1585,52.0,52.812565
1586,53.0,52.90285
1587,53.0,52.89206
1588,57.0,52.88007
1589,52.0,52.4223
1590,48.0,52.46922
1591,53.0,52.9658
1592,54.0,52.962006
1593,53.0,52.846672
1594,55.0,52.82964
1595,51.0,52.58849
1596,53.0,52.76499
1597,52.0,52.73888
1598,52.0,52.82098
1599,53.0,52.9122
1600,53.0,52.902447
1601,53.0,52.89161
1602,53.0,52.87957
1603,53.0,52.86619
1604,53.0,52.851326
1605,53.0,52.83481
1606,53.0,52.816456
1607,53.0,52.796062
1608,53.0,52.773403
1609,53.0,52.748226
1610,54.0,52.720253
1611,52.0,52.57806
1612,53.0,52.64229
1613,52.0,52.602547
1614,53.0,52.6695
1615,53.0,52.63278
1616,53.0,52.59198
1617,54.0,52.546646
1618,59.0,52.385162
1619,51.0,51.65018
1620,48.0,51.722427
1621,48.0,52.136032
1622,52.0,52.595592
1623,53.0,52.66177
1624,52.0,52.62419
1625,53.0,52.693546
1626,53.0,52.659496
1627,52.0,52.621666
1628,54.0,52.69074
1629,51.0,52.545265
1630,53.0,52.716965
1631,52.0,52.68552
1632,53.0,52.76169
1633,52.0,52.73521
1634,53.0,52.816902
1635,53.0,52.79656
1636,53.0,52.773956
1637,53.0,52.748844
1638,52.0,52.72094
1639,53.0,52.801044
1640,53.0,52.778942
1641,53.0,52.754383
1642,53.0,52.727093
1643,53.0,52.696774
1644,53.0,52.663082
1645,50.0,52.62565
1646,53.0,52.91739
1647,53.0,52.90821
1648,57.0,52.898014
1649,52.0,52.442238
1650,48.0,52.491375
1651,54.0,52.990417
1652,53.0,52.878242
1653,53.0,52.864716
1654,53.0,52.849686
1655,53.0,52.832985
1656,52.0,52.81443
1657,53.0,52.904922
1658,53.0,52.89436
1659,58.0,52.882626
1660,52.0,52.31403
1661,48.0,52.348923
1662,57.0,52.832138
1663,55.0,52.36904
1664,52.0,52.076714
1665,48.0,52.08524
1666,49.0,52.539158
1667,53.0,52.932396
1668,53.0,52.92489
1669,53.0,52.916546
1670,53.0,52.907276
1671,53.0,52.896976
1672,53.0,52.885532
1673,53.0,52.872818
1674,53.0,52.85869
1675,56.0,52.84299
1676,54.0,52.492214
1677,48.0,52.32468
1678,57.0,52.805202
1679,52.0,52.339115
1680,48.0,52.376797
1681,53.0,52.86311
1682,52.0,52.8479
1683,54.0,52.942112
1684,53.0,52.82457
1685,54.0,52.80508
1686,53.0,52.67231
1687,53.0,52.635902
1688,54.0,52.59545
1689,53.0,52.43939
1690,53.0,52.3771
1691,53.0,52.30789
1692,51.0,52.23099
1693,49.0,52.36777
1694,53.0,52.741966
1695,53.0,52.7133
1696,53.0,52.681446
1697,53.0,52.646053
1698,53.0,52.606728
1699,53.0,52.563034
1700,53.0,52.514484
1701,53.0,52.46054
1702,53.0,52.400604
1703,53.0,52.334007
1704,54.0,52.26001
1705,53.0,52.066677
1706,54.0,51.96298
1707,58.0,51.73664
1708,45.0,51.040714
1709,50.0,51.711906
1710,44.0,51.90212
1711,53.0,52.780132
1712,53.0,52.755703
1713,53.0,52.72856
1714,52.0,52.698402
1715,54.0,52.776005
1716,53.0,52.640003
1717,54.0,52.600006
1718,53.0,52.44445
1719,53.0,52.382725
1720,53.0,52.31414
1721,53.0,52.31414
1722,52.0,52.237934
1723,52.0,52.26437
1724,52.0,52.293743
1725,51.0,52.32638
1726,48.0,52.473763
1727,53.0,52.970848
1728,54.0,52.967613
1729,53.0,52.852905
1730,53.0,52.836563
1731,52.0,52.818405
1732,53.0,52.90934
1733,54.0,52.89927
1734,53.0,52.776966
1735,53.0,52.752186
1736,53.0,52.724655
1737,53.0,52.694065
1738,53.0,52.660076
1739,55.0,52.62231
1740,52.0,52.358124
1741,51.0,52.397915
1742,49.0,52.55324
1743,53.0,52.948048
1744,53.0,52.942276
1745,53.0,52.935863
1746,53.0,52.92874
1747,53.0,52.920826
1748,52.0,52.912033
1749,53.0,53.01337
1750,53.0,53.01486
1751,54.0,53.01651
1752,57.0,52.907234
1753,53.0,52.452484
1754,52.0,52.39165
1755,49.0,52.43517
1756,52.0,52.816856
1757,55.0,52.90762
1758,51.0,52.675133
1759,53.0,52.861263
1760,53.0,52.84585
1761,53.0,52.828728
1762,53.0,52.8097
1763,53.0,52.78856
1764,53.0,52.765068
1765,53.0,52.738968
1766,53.0,52.709965
1767,53.0,52.677742
1768,54.0,52.641937
1769,55.0,52.491043
1770,51.0,52.212273
1771,49.0,52.346973
1772,54.0,52.71886
1773,51.0,52.57651
1774,52.0,52.751682
1775,53.0,52.8352
1776,53.0,52.816895
1777,53.0,52.79655
1778,53.0,52.77395
1779,53.0,52.748833
1780,53.0,52.72093
1781,52.0,52.689922
1782,53.0,52.766582
1783,52.0,52.74065
1784,53.0,52.822945
1785,53.0,52.803272
1786,53.0,52.781414
1787,53.0,52.75713
1788,57.0,52.73015
1789,48.0,52.255722
1790,55.0,52.72858
1791,50.0,52.476204
1792,53.0,52.75134
1793,53.0,52.723713
1794,53.0,52.693016
1795,53.0,52.65891
1796,54.0,52.621014
1797,57.0,52.467793
1798,53.0,51.964214
1799,51.0,51.84913
1800,48.0,51.943478
1801,49.0,52.381645
1802,53.0,52.75738
1803,53.0,52.730427
1804,57.0,52.700478
1805,48.0,52.222755
1806,55.0,52.69195
1807,48.0,52.435505
1808,53.0,52.92834
1809,52.0,52.92038
1810,53.0,53.022644
1811,53.0,53.02516
1812,54.0,53.027958
1813,53.0,52.919952
1814,53.0,52.91106
1815,53.0,52.90118
1816,53.0,52.8902
1817,52.0,52.878006
1818,54.0,52.975563
1819,53.0,52.861736
1820,55.0,52.846375
1821,49.0,52.607082
1822,57.0,53.00787
1823,51.0,52.5643
1824,53.0,52.738113
1825,53.0,52.70902
1826,52.0,52.67669
1827,53.0,52.751877
1828,54.0,52.72431
1829,53.0,52.58257
1830,50.0,52.53619
1831,52.0,52.81799
1832,53.0,52.90888
1833,53.0,52.898754
1834,52.0,52.88751
1835,53.0,52.986122
1836,53.0,52.98458
1837,52.0,52.98287
1838,55.0,53.092075
1839,52.0,52.880085
1840,53.0,52.977875
1841,58.0,52.975418
1842,53.0,52.417133
1843,52.0,52.35237
1844,48.0,52.391525
1845,52.0,52.879475
1846,53.0,52.977196
1847,54.0,52.974663
1848,53.0,52.860737
1849,53.0,52.845264
1850,53.0,52.828075
1851,53.0,52.808975
1852,53.0,52.787754
1853,52.0,52.76417
1854,53.0,52.84908
1855,52.0,52.832314
1856,52.0,52.924793
1857,53.0,53.02755
1858,56.0,53.030613
1859,53.0,52.700684
1860,49.0,52.667427
1861,54.0,53.074917
1862,54.0,52.97213
1863,53.0,52.85792
1864,53.0,52.842136
1865,53.0,52.8246
1866,53.0,52.805115
1867,53.0,52.783463
1868,52.0,52.759407
1869,53.0,52.84379
1870,53.0,52.826435
1871,55.0,52.80715
1872,49.0,52.563503
1873,53.0,52.95945
1874,53.0,52.95495
1875,53.0,52.949944
1876,54.0,52.944386
1877,53.0,52.827095
1878,52.0,52.807884
1879,53.0,52.89765
1880,53.0,52.886284
1881,52.0,52.87365
1882,53.0,52.970722
1883,53.0,52.967472
1884,52.0,52.96386
1885,56.0,53.070957
1886,57.0,52.74551
1887,55.0,52.27279
1888,50.0,51.96977
1889,49.0,52.188633
1890,47.0,52.542927
1891,52.0,53.15881
1892,53.0,53.287567
1893,53.0,53.319523
1894,54.0,53.355026
1895,54.0,53.283363
1896,53.0,53.203735
1897,53.0,53.226376
1898,53.0,53.25153
1899,55.0,53.27948
1900,52.0,53.088314
1901,53.0,53.20924
1902,54.0,53.23249
1903,56.0,53.147213
1904,51.0,52.83024
1905,53.0,53.0336
1906,53.0,53.037334
1907,53.0,53.041485
1908,53.0,53.046097
1909,53.0,53.05122
1910,53.0,53.056915
1911,53.0,53.06324
1912,53.0,53.07027
1913,53.0,53.07808
1914,54.0,53.086758
1915,57.0,52.985287
1916,49.0,52.539207
1917,53.0,52.932453
1918,57.0,52.92495
1919,52.0,52.472168
1920,48.0,52.52463
1921,53.0,53.02737
1922,53.0,53.030415
1923,54.0,53.033794
1924,53.0,52.926437
1925,53.0,52.918266
1926,53.0,52.909187
1927,54.0,52.899097
1928,53.0,52.776775
1929,54.0,52.751976
1930,57.0,52.613308
1931,55.0,52.1259
1932,48.0,51.806557
1933,48.0,52.22951
1934,53.0,52.69946
1935,53.0,52.66607
1936,53.0,52.628967
1937,52.0,52.58774
1938,53.0,52.653046
1939,53.0,52.6145
1940,53.0,52.571667
1941,53.0,52.524075
1942,52.0,52.471195
1943,52.0,52.523552
1944,53.0,52.581726
1945,53.0,52.535255
1946,52.0,52.48362
1947,55.0,52.537357
1948,53.0,52.263733
1949,52.0,52.181927
1950,48.0,52.20214
1951,53.0,52.66905
1952,55.0,52.63228
1953,48.0,52.369198
1954,53.0,52.854668
1955,53.0,52.838524
1956,53.0,52.820583
1957,53.0,52.80065
1958,54.0,52.778503
1959,53.0,52.64278
1960,52.0,52.603092
1961,53.0,52.670105
1962,53.0,52.633453
1963,55.0,52.592728
1964,48.0,52.325253
1965,53.0,52.80584
1966,53.0,52.784267
1967,52.0,52.7603
1968,57.0,52.844776
1969,48.0,52.383083
1970,53.0,52.870094
1971,53.0,52.855663
1972,53.0,52.83963
1973,53.0,52.82181
1974,57.0,52.802017
1975,55.0,52.335575
1976,52.0,52.039528
1977,48.0,52.043922
1978,55.0,52.493248
1979,51.0,52.21472
1980,48.0,52.349693
1981,53.0,52.832996
1982,53.0,52.81444
1983,52.0,52.793827
1984,55.0,52.88203
1985,51.0,52.6467
1986,54.0,52.829674
1987,53.0,52.69964
1988,53.0,52.666267
1989,52.0,52.62919
1990,52.0,52.6991
1991,52.0,52.77678
1992,53.0,52.863087
1993,53.0,52.847878
1994,53.0,52.83098
1995,52.0,52.812202
1996,52.0,52.902447
1997,53.0,53.00272
1998,53.0,53.003025
1999,53.0,53.003365
2000,53.0,53.003742
2001,53.0,53.00416
2002,53.0,53.004627
2003,54.0,53.005142
2004,53.0,52.894604
2005,54.0,52.882896
2006,53.0,52.758774
2007,53.0,52.73197
2008,57.0,52.702194
2009,51.0,52.22466
2010,49.0,52.360737
2011,52.0,52.734154
2012,53.0,52.815727
2013,53.0,52.795254
2014,53.0,52.772507
2015,53.0,52.74723
2016,54.0,52.719147
2017,55.0,52.576828
2018,50.0,52.307587
2019,56.0,52.563988
2020,52.0,52.182213
2021,52.0,52.20246
2022,48.0,52.224957
2023,51.0,52.694397
2024,53.0,52.882668
2025,53.0,52.869633
2026,53.0,52.85515
2027,52.0,52.839058
2028,53.0,52.93229
2029,53.0,52.924767
2030,53.0,52.91641
2031,53.0,52.907124
2032,53.0,52.896805
2033,55.0,52.88534
2034,48.0,52.650383
2035,53.0,53.167095
2036,54.0,53.185665
2037,53.0,53.095184
2038,55.0,53.105762
2039,52.0,52.895294
2040,48.0,52.99477
2041,53.0,53.549747
2042,58.0,53.610832
2043,51.0,53.12315
2044,54.0,53.35906
2045,54.0,53.28784
2046,53.0,53.208714
2047,53.0,53.231907
2048,53.0,53.257675
2049,58.0,53.28631
2050,51.0,52.762566
2051,54.0,52.95841
2052,53.0,52.842674
2053,53.0,52.825195
2054,53.0,52.805775
2055,53.0,52.784195
2056,53.0,52.76022
2057,53.0,52.733578
2058,57.0,52.703976
2059,47.0,52.22664
2060,53.0,52.807377
2061,52.0,52.785976
2062,53.0,52.873306
2063,57.0,52.85923
2064,53.0,52.399147
2065,53.0,52.332386
2066,48.0,52.25821
2067,52.0,52.731346
2068,57.0,52.812607
2069,52.0,52.34734
2070,49.0,52.385933
2071,53.0,52.762146
2072,53.0,52.73572
2073,53.0,52.70636
2074,57.0,52.673737
2075,48.0,52.193043
2076,53.0,52.65894
2077,53.0,52.621044
2078,53.0,52.57894
2079,52.0,52.532158
2080,53.0,52.591286
2081,53.0,52.545876
2082,52.0,52.49542
2083,52.0,52.550465
2084,53.0,52.61163
2085,53.0,52.568478
2086,53.0,52.520535
2087,53.0,52.467262
2088,53.0,52.408073
2089,53.0,52.342308
2090,53.0,52.269234
2091,49.0,52.18804
2092,53.0,52.542267
2093,53.0,52.49141
2094,52.0,52.434902
2095,53.0,52.483227
2096,53.0,52.42581
2097,54.0,52.362015
2098,55.0,52.180016
2099,48.0,51.866684
2100,48.0,52.296318
2101,53.0,52.77369
2102,53.0,52.748547
2103,53.0,52.720608
2104,53.0,52.689568
2105,53.0,52.65508
2106,53.0,52.616756
2107,51.0,52.574177
2108,57.0,52.74909
2109,52.0,52.276764
2110,51.0,52.307518
2111,48.0,52.4528
2112,53.0,52.94756
2113,53.0,52.941734
2114,57.0,52.935265
2115,48.0,52.483627
2116,53.0,52.98181
2117,54.0,52.979794
2118,54.0,52.866436
2119,53.0,52.740486
2120,52.0,52.711655
2121,54.0,52.79073
2122,52.0,52.656364
2123,52.0,52.729294
2124,52.0,52.810326
2125,53.0,52.900364
2126,53.0,52.889294
2127,54.0,52.876995
2128,55.0,52.752216
2129,53.0,52.502464
2130,50.0,52.447186
2131,52.0,52.719097
2132,53.0,52.798996
2133,53.0,52.776665
2134,53.0,52.751854
2135,53.0,52.724285
2136,52.0,52.693653
2137,53.0,52.770725
2138,52.0,52.74525
2139,53.0,52.828056
2140,53.0,52.808952
2141,52.0,52.787727
2142,53.0,52.87525
2143,53.0,52.861393
2144,53.0,52.845993
2145,53.0,52.828884
2146,54.0,52.80987
2147,51.0,52.677635
2148,53.0,52.86404
2149,53.0,52.848938
2150,53.0,52.832157
2151,54.0,52.81351
2152,57.0,52.68168
2153,53.0,52.201866
2154,50.0,52.113186
2155,48.0,52.347984
2156,52.0,52.831097
2157,54.0,52.923443
2158,55.0,52.803825
2159,51.0,52.559807
2160,52.0,52.73312
2161,53.0,52.81458
2162,53.0,52.79398
2163,53.0,52.77109
2164,50.0,52.74566
2165,53.0,53.05073
2166,53.0,53.05637
2167,51.0,53.062634
2168,53.0,53.291817
2169,58.0,53.32424
2170,52.0,52.804714
2171,52.0,52.894127
2172,53.0,52.993473
2173,53.0,52.99275
2174,53.0,52.991943
2175,53.0,52.99105
2176,53.0,52.99006
2177,53.0,52.988956
2178,53.0,52.987732
2179,56.0,52.98637
2180,48.0,52.651524
2181,53.0,53.16836
2182,53.0,53.18707
2183,53.0,53.207855
2184,54.0,53.230953
2185,57.0,53.145504
2186,51.0,52.717228
2187,54.0,52.908035
2188,55.0,52.786705
2189,51.0,52.540783
2190,50.0,52.711983
2191,53.0,53.013317
2192,53.0,53.014797
2193,53.0,53.016445
2194,53.0,53.018276
2195,57.0,53.02031
2196,53.0,52.57812
2197,55.0,52.53125
2198,52.0,52.256947
2199,47.0,52.285496
2200,52.0,52.872772
2201,57.0,52.96975
2202,48.0,52.521946
2203,53.0,53.024387
2204,53.0,53.0271
2205,53.0,53.030113
2206,54.0,53.033463
2207,53.0,52.92607
2208,53.0,52.91786
2209,53.0,52.908733
2210,53.0,52.898594
2211,53.0,52.88733
2212,52.0,52.874813
2213,53.0,52.972015
2214,53.0,52.96891
2215,53.0,52.965458
2216,53.0,52.961624
2217,61.0,52.957363
2218,49.0,52.06374
2219,50.0,52.404156
2220,50.0,52.671284
2221,53.0,52.968094
2222,54.0,52.96455
2223,53.0,52.8495
2224,53.0,52.83278
2225,53.0,52.8142
2226,53.0,52.79356
2227,54.0,52.770626
2228,51.0,52.63403
2229,53.0,52.81559
2230,53.0,52.7951
2231,53.0,52.77234
2232,54.0,52.747044
2233,53.0,52.607826
2234,49.0,52.564255
2235,53.0,52.96028
2236,53.0,52.95587
2237,53.0,52.95097
2238,53.0,52.945522
2239,53.0,52.939472
2240,54.0,52.93275
2241,57.0,52.814167
2242,52.0,52.349075
2243,52.0,52.387863
2244,51.0,52.430958
2245,49.0,52.589954
2246,53.0,52.98884
2247,57.0,52.9876
2248,53.0,52.541775
2249,49.0,52.490864
2250,52.0,52.87874
2251,53.0,52.976376
2252,53.0,52.973755
2253,53.0,52.97084
2254,52.0,52.9676
2255,54.0,53.075115
2256,53.0,52.97235
2257,53.0,52.96928
2258,53.0,52.96587
2259,53.0,52.96208
2260,57.0,52.957867
2261,49.0,52.508743
2262,53.0,52.8986
2263,53.0,52.887337
2264,53.0,52.87482
2265,52.0,52.860912
2266,54.0,52.95657
2267,53.0,52.840633
2268,53.0,52.82293
2269,53.0,52.803257
2270,52.0,52.7814
2271,53.0,52.86822
2272,53.0,52.85358
2273,53.0,52.837315
2274,53.0,52.81924
2275,53.0,52.79916
2276,57.0,52.776848
2277,53.0,52.30761
2278,52.0,52.23068
2279,48.0,52.25631
2280,53.0,52.729237
2281,51.0,52.699154
2282,53.0,52.88795
2283,53.0,52.875504
2284,53.0,52.86167
2285,57.0,52.846302
2286,53.0,52.38478
2287,51.0,52.316425
2288,48.0,52.462696
2289,52.0,52.958553
2290,53.0,53.06506
2291,52.0,53.072292
2292,54.0,53.191437
2293,53.0,53.101597
2294,53.0,53.11289
2295,53.0,53.125435
2296,56.0,53.139374
2297,52.0,52.82153
2298,53.0,52.91281
2299,53.0,52.903126
2300,53.0,52.892365
2301,53.0,52.880405
2302,53.0,52.86712
2303,53.0,52.852356
2304,53.0,52.835953
2305,53.0,52.817726
2306,53.0,52.797474
2307,57.0,52.774975
2308,52.0,52.305527
2309,48.0,52.339474
2310,53.0,52.82164
2311,53.0,52.801823
2312,57.0,52.779804
2313,48.0,52.310894
2314,53.0,52.789886
2315,54.0,52.766544
2316,52.0,52.629494
2317,53.0,52.69944
2318,53.0,52.666046
2319,53.0,52.628944
2320,53.0,52.58772
2321,52.0,52.541912
2322,53.0,52.602127
2323,53.0,52.557922
2324,53.0,52.508804
2325,55.0,52.45423
2326,48.0,52.171368
2327,53.0,52.634857
2328,57.0,52.594288
2329,49.0,52.104767
2330,55.0,52.44974
2331,52.0,52.16638
2332,51.0,52.184868
2333,48.0,52.316525
2334,53.0,52.796143
2335,53.0,52.773495
2336,52.0,52.74833
2337,57.0,52.83148
2338,53.0,52.36831
2339,48.0,52.298122
2340,53.0,52.775692
2341,57.0,52.75077
2342,48.0,52.278633
2343,53.0,52.75404
2344,55.0,52.72671
2345,48.0,52.474125
2346,53.0,52.971252
2347,53.0,52.96806
2348,53.0,52.96451
2349,53.0,52.96057
2350,53.0,52.956192
2351,53.0,52.95133
2352,53.0,52.945923
2353,54.0,52.93992
2354,53.0,52.822132
2355,53.0,52.802372
2356,53.0,52.780415
2357,54.0,52.75602
2358,52.0,52.617798
2359,53.0,52.686443
2360,55.0,52.651608
2361,48.0,52.390675
2362,52.0,52.87853
2363,53.0,52.976143
2364,53.0,52.973495
2365,54.0,52.970554
2366,54.0,52.85617
2367,57.0,52.729076
2368,52.0,52.254528
2369,48.0,52.28281
2370,53.0,52.75868
2371,53.0,52.73187
2372,53.0,52.70208
2373,55.0,52.66898
2374,55.0,52.409977
2375,53.0,52.122196
2376,50.0,52.024666
2377,48.0,52.24963
2378,52.0,52.721813
2379,53.0,52.802017
2380,52.0,52.78002
2381,53.0,52.86669
2382,53.0,52.851883
2383,53.0,52.835426
2384,53.0,52.817142
2385,53.0,52.796825
2386,52.0,52.774254
2387,53.0,52.860283
2388,54.0,52.84476
2389,53.0,52.7164
2390,53.0,52.68489
2391,52.0,52.64988
2392,52.0,52.722088
2393,53.0,52.802322
2394,53.0,52.78036
2395,53.0,52.75596
2396,53.0,52.728844
2397,55.0,52.69872
2398,52.0,52.443024
2399,48.0,52.49225
2400,54.0,52.99139
2401,52.0,52.879322
2402,53.0,52.977024
2403,53.0,52.974472
2404,53.0,52.971638
2405,54.0,52.968487
2406,57.0,52.853874
2407,48.0,52.393196
2408,52.0,52.881332
2409,53.0,52.97926
2410,53.0,52.976955
2411,53.0,52.974396
2412,53.0,52.971554
2413,53.0,52.968395
2414,53.0,52.964886
2415,52.0,52.960987
2416,53.0,53.067764
2417,53.0,53.075294
2418,57.0,53.083664
2419,55.0,52.648518
2420,52.0,52.38724
2421,49.0,52.430267
2422,56.0,52.81141
2423,50.0,52.457123
2424,52.0,52.730137
2425,53.0,52.811264
2426,53.0,52.790295
2427,55.0,52.767
2428,52.0,52.51889
2429,49.0,52.576546
2430,53.0,52.973938
2431,53.0,52.971043
2432,53.0,52.967827
2433,53.0,52.964256
2434,53.0,52.96029
2435,53.0,52.95588
2436,53.0,52.950977
2437,53.0,52.945534
2438,55.0,52.939484
2439,55.0,52.710537
2440,50.0,52.456154
2441,52.0,52.72906
2442,53.0,52.81007
2443,53.0,52.788967
2444,53.0,52.765522
2445,53.0,52.73947
2446,52.0,52.710526
2447,53.0,52.789474
2448,53.0,52.766087
2449,53.0,52.740097
2450,53.0,52.71122
2451,53.0,52.679134
2452,53.0,52.643486
2453,53.0,52.603874
2454,54.0,52.559864
2455,54.0,52.39985
2456,49.0,52.222054
2457,55.0,52.58006
2458,51.0,52.311176
2459,50.0,52.456867
2460,53.0,52.729855
2461,52.0,52.69984
2462,54.0,52.7776
2463,57.0,52.641777
2464,53.0,52.15753
2465,52.0,52.063927
2466,48.0,52.07103
2467,52.0,52.52337
2468,53.0,52.58152
2469,53.0,52.535027
2470,52.0,52.483364
2471,55.0,52.53707
2472,48.0,52.263412
2473,53.0,52.73713
2474,54.0,52.707924
2475,53.0,52.56436
2476,53.0,52.51596
2477,53.0,52.46218
2478,53.0,52.402424
2479,52.0,52.33603
2480,53.0,52.373367
2481,53.0,52.303745
2482,53.0,52.226387
2483,53.0,52.140434
2484,53.0,52.04493
2485,53.0,51.938812
2486,55.0,51.820904
2487,47.0,51.46767
2488,48.0,51.964077
2489,49.0,52.404533
2490,53.0,52.782814
2491,53.0,52.758686
2492,53.0,52.731876
2493,53.0,52.702087
2494,53.0,52.668987
2495,52.0,52.63221
2496,52.0,52.702457
2497,53.0,52.78051
2498,53.0,52.756126
2499,53.0,52.72903
2500,53.0,52.698925
2501,52.0,52.665474
2502,53.0,52.739414
2503,54.0,52.710464
2504,49.0,52.567184
2505,52.0,52.96354
2506,53.0,53.0706
2507,58.0,53.078445
2508,55.0,52.53161
2509,52.0,52.257343
2510,48.0,52.28594
2511,52.0,52.762157
2512,53.0,52.846844
2513,53.0,52.82983
2514,53.0,52.810925
2515,53.0,52.789917
2516,54.0,52.766575
2517,55.0,52.629528
2518,51.0,52.366142
2519,50.0,52.51794
2520,52.0,52.797714
2521,53.0,52.88635
2522,53.0,52.873722
2523,52.0,52.85969
2524,53.0,52.95521
2525,53.0,52.950237
2526,53.0,52.94471
2527,53.0,52.93857
2528,53.0,52.931744
2529,53.0,52.92416
2530,53.0,52.915737
2531,54.0,52.906376
2532,53.0,52.784863
2533,53.0,52.76096
2534,54.0,52.7344
2535,52.0,52.59378
2536,52.0,52.659756
2537,52.0,52.733063
2538,53.0,52.814514
2539,53.0,52.793907
2540,52.0,52.77101
2541,54.0,52.856678
2542,53.0,52.72964
2543,52.0,52.699604
2544,53.0,52.77734
2545,52.0,52.7526
2546,56.0,52.836224
2547,55.0,52.484695
2548,51.0,52.20522
2549,49.0,52.339134
2550,56.0,52.710148
2551,53.0,52.344612
2552,55.0,52.271793
2553,49.0,51.968662
2554,51.0,52.298515
2555,48.0,52.4428
2556,53.0,52.936447
2557,53.0,52.929386
2558,53.0,52.921543
2559,53.0,52.912827
2560,53.0,52.903145
2561,54.0,52.892387
2562,53.0,52.769318
2563,52.0,52.74369
2564,53.0,52.826324
2565,53.0,52.80703
2566,57.0,52.78559
2567,48.0,52.317326
2568,57.0,52.79703
2569,48.0,52.330036
2570,53.0,52.811153
2571,53.0,52.790173
2572,53.0,52.76686
2573,52.0,52.85207
2574,53.0,52.85207
2575,53.0,52.835636
2576,53.0,52.817375
2577,54.0,52.797085
2578,53.0,52.66343
2579,51.0,52.626034
2580,52.0,52.806705
2581,53.0,52.89634
2582,53.0,52.884823
2583,57.0,52.87203
2584,47.0,52.413364
2585,56.0,53.01485
2586,51.0,52.68317
2587,53.0,52.870193
2588,53.0,52.855774
2589,53.0,52.839752
2590,52.0,52.82195
2591,53.0,52.913277
2592,53.0,52.903645
2593,53.0,52.89294
2594,54.0,52.881046
2595,53.0,52.756718
2596,53.0,52.729687
2597,57.0,52.699654
2598,52.0,52.221836
2599,54.0,52.246487
2600,45.0,52.05165
2601,53.0,52.83517
2602,52.0,52.81686
2603,53.0,52.907623
2604,53.0,52.89736
2605,53.0,52.88596
2606,53.0,52.87329
2607,57.0,52.859215
2608,53.0,52.399128
2609,49.0,52.332367
2610,53.0,52.70263
2611,53.0,52.66959
2612,53.0,52.63288
2613,53.0,52.592094
2614,53.0,52.546772
2615,55.0,52.496414
2616,48.0,52.21824
2617,53.0,52.686935
2618,52.0,52.652153
2619,52.0,52.724613
2620,53.0,52.805126
2621,52.0,52.783474
2622,53.0,52.870525
2623,52.0,52.85614
2624,53.0,52.951267
2625,53.0,52.945854
2626,53.0,52.939842
2627,53.0,52.93316
2628,53.0,52.925735
2629,52.0,52.917484
2630,53.0,53.01943
2631,55.0,53.02159
2632,52.0,52.80177
2633,53.0,52.890854
2634,57.0,52.87873
2635,48.0,52.420815
2636,53.0,52.912018
2637,53.0,52.902245
2638,56.0,52.558052
2639,53.0,52.558052
2640,48.0,52.50895
2641,53.0,53.009945
2642,58.0,53.01105
2643,55.0,52.456726
2644,52.0,52.17414
2645,50.0,52.19349
2646,49.0,52.43721
2647,53.0,52.819122
2648,52.0,52.799026
2649,53.0,52.887806
2650,53.0,52.875343
2651,57.0,52.861496
2652,48.0,52.40166
2653,52.0,52.890736
2654,53.0,52.989708
2655,53.0,52.988567
2656,53.0,52.9873
2657,53.0,52.985893
2658,53.0,52.98433
2659,53.0,52.98259
2660,54.0,52.98066
2661,52.0,52.8674
2662,53.0,52.96378
2663,53.0,52.95976
2664,53.0,52.95529
2665,54.0,52.950325
2666,53.0,52.833694
2667,54.0,52.81522
2668,55.0,52.68358
2669,51.0,52.4262
2670,49.0,52.58467
2671,53.0,52.982967
2672,53.0,52.981075
2673,53.0,52.978973
2674,53.0,52.97664
2675,53.0,52.974045
2676,53.0,52.971165
2677,53.0,52.967964
2678,52.0,52.96441
2679,56.0,53.071568
2680,51.0,52.74619
2681,53.0,52.940212
2682,53.0,52.93357
2683,54.0,52.926193
2684,52.0,52.80688
2685,53.0,52.896534
2686,53.0,52.88504
2687,57.0,52.87227
2688,52.0,52.41363
2689,52.0,52.45959
2690,48.0,52.51066
2691,54.0,53.011845
2692,53.0,52.90205
2693,53.0,52.89117
2694,53.0,52.87908
2695,56.0,52.86565
2696,51.0,52.51739
2697,54.0,52.685993
2698,57.0,52.539993
2699,53.0,52.044437
2700,49.0,51.938267
2701,48.0,52.26474
2702,53.0,52.7386
2703,52.0,52.70956
2704,53.0,52.788403
2705,53.0,52.764893
2706,53.0,52.738773
2707,53.0,52.70975
2708,53.0,52.6775
2709,52.0,52.64167
2710,53.0,52.712967
2711,57.0,52.681076
2712,48.0,52.201195
2713,53.0,52.667995
2714,53.0,52.631107
2715,52.0,52.590122
2716,57.0,52.655693
2717,48.0,52.172993
2718,52.0,52.63666
2719,53.0,52.7074
2720,53.0,52.674892
2721,53.0,52.63877
2722,52.0,52.598637
2723,53.0,52.665154
2724,52.0,52.62795
2725,53.0,52.697723
2726,53.0,52.66414
2727,57.0,52.626823
2728,52.0,52.140915
2729,51.0,52.156574
2730,48.0,52.285088
2731,57.0,52.76121
2732,55.0,52.290237
2733,48.0,51.989155
2734,49.0,52.432396
2735,53.0,52.813774
2736,53.0,52.793083
2737,53.0,52.770096
2738,53.0,52.744553
2739,53.0,52.71617
2740,53.0,52.68464
2741,53.0,52.6496
2742,52.0,52.610672
2743,55.0,52.678524
2744,48.0,52.420586
2745,53.0,52.911766
2746,53.0,52.901966
2747,53.0,52.891075
2748,55.0,52.878975
2749,51.0,52.643307
2750,52.0,52.8259
2751,54.0,52.917667
2752,53.0,52.79741
2753,53.0,52.774902
2754,53.0,52.749893
2755,53.0,52.722107
2756,53.0,52.69123
2757,54.0,52.656925
2758,55.0,52.507694
2759,51.0,52.230774
2760,48.0,52.36753
2761,53.0,52.852814
2762,53.0,52.836464
2763,53.0,52.818295
2764,53.0,52.798107
2765,53.0,52.775677
2766,52.0,52.750755
2767,53.0,52.83417
2768,53.0,52.81575
2769,53.0,52.79528
2770,53.0,52.772537
2771,52.0,52.747265
2772,53.0,52.830296
2773,53.0,52.811443
2774,54.0,52.790493
2775,54.0,52.656105
2776,55.0,52.506783
2777,52.0,52.22976
2778,51.0,52.255287
2779,49.0,52.394768
2780,53.0,52.771965
2781,55.0,52.74663
2782,49.0,52.496258
2783,53.0,52.88473
2784,53.0,52.871925
2785,53.0,52.857697
2786,53.0,52.84189
2787,54.0,52.82432
2788,55.0,52.69369
2789,51.0,52.437435
2790,49.0,52.597153
2791,52.0,52.996838
2792,54.0,53.107597
2793,53.0,53.008442
2794,53.0,53.009384
2795,53.0,53.01043
2796,53.0,53.01159
2797,57.0,53.01288
2798,48.0,52.569866
2799,53.0,53.077633
2800,53.0,53.08626
2801,54.0,53.095848
2802,53.0,52.995388
2803,53.0,52.994877
2804,53.0,52.99431
2805,53.0,52.99368
2806,53.0,52.992977
2807,52.0,52.9922
2808,53.0,53.102444
2809,53.0,53.113827
2810,53.0,53.126476
2811,53.0,53.140533
2812,53.0,53.15615
2813,56.0,53.173504
2814,51.0,52.85945
2815,53.0,53.06606
2816,53.0,53.073402
2817,56.0,53.081562
2818,53.0,52.757294
2819,53.0,52.730328
2820,56.0,52.700367
2821,52.0,52.333744
2822,54.0,52.370827
2823,45.0,52.189808
2824,53.0,52.988678
2825,53.0,52.987423
2826,53.0,52.986027
2827,53.0,52.984478
2828,53.0,52.982754
2829,54.0,52.98084
2830,52.0,52.8676
2831,53.0,52.964
2832,53.0,52.960003
2833,53.0,52.955563
2834,53.0,52.950626
2835,53.0,52.945145
2836,53.0,52.939053
2837,53.0,52.93228
2838,58.0,52.92476
2839,48.0,52.360844
2840,53.0,52.845383
2841,53.0,52.828205
2842,53.0,52.80912
2843,53.0,52.787914
2844,52.0,52.76435
2845,53.0,52.849277
2846,52.0,52.83253
2847,57.0,52.925034
2848,53.0,52.47226
2849,49.0,52.413624
2850,52.0,52.792915
2851,53.0,52.88102
2852,53.0,52.8678
2853,54.0,52.853115
2854,57.0,52.725685
2855,48.0,52.250763
2856,53.0,52.723072
2857,53.0,52.692303
2858,53.0,52.658115
2859,53.0,52.620132
2860,53.0,52.577927
2861,53.0,52.531033
2862,55.0,52.478928
2863,48.0,52.19881
2864,57.0,52.665348
2865,55.0,52.18372
2866,52.0,51.8708
2867,48.0,51.856445
2868,52.0,52.284943
2869,53.0,52.316605
2870,51.0,52.240673
2871,48.0,52.37853
2872,53.0,52.865036
2873,53.0,52.85004
2874,52.0,52.83338
2875,52.0,52.92598
2876,53.0,53.028866
2877,56.0,53.032074
2878,55.0,52.70231
2879,48.0,52.44701
2880,52.0,52.941124
2881,53.0,53.045692
2882,54.0,53.05077
2883,54.0,52.9453
2884,53.0,52.828114
2885,53.0,52.809017
2886,53.0,52.7878
2887,50.0,52.764225
2888,53.0,53.07136
2889,53.0,53.079292
2890,53.0,53.088104
2891,53.0,53.097897
2892,53.0,53.108776
2893,53.0,53.120865
2894,55.0,53.134296
2895,52.0,52.927
2896,53.0,53.03
2897,53.0,53.033333
2898,53.0,53.037037
2899,53.0,53.041153
2900,53.0,53.045727
2901,53.0,53.050808
2902,53.0,53.056458
2903,53.0,53.062733
2904,53.0,53.069706
2905,53.0,53.077454
2906,54.0,53.086063
2907,57.0,52.984516
2908,55.0,52.538353
2909,51.0,52.26484
2910,53.0,52.40538
2911,50.0,52.339314
2912,48.0,52.59924
2913,53.0,53.110268
2914,54.0,53.12252
2915,53.0,53.02502
2916,53.0,53.0278
2917,54.0,53.03089
2918,52.0,52.923214
2919,53.0,53.025795
2920,53.0,53.028664
2921,53.0,53.031853
2922,53.0,53.035393
2923,54.0,53.03933
2924,53.0,52.932587
2925,53.0,52.9251
2926,53.0,52.91678
2927,53.0,52.907536
2928,52.0,52.897263
2929,53.0,52.99696
2930,53.0,52.996624
2931,53.0,52.99625
2932,53.0,52.995834
2933,55.0,52.995373
2934,51.0,52.772636
2935,53.0,52.9696
2936,53.0,52.966225
2937,57.0,52.962475
2938,52.0,52.513863
2939,48.0,52.57096
2940,53.0,53.078846
2941,54.0,53.08761
2942,53.0,52.986233
2943,57.0,52.984707
2944,48.0,52.538563
2945,53.0,53.04285
2946,53.0,53.047615
2947,53.0,53.052906
2948,53.0,53.05879
2949,57.0,53.065323
2950,51.0,52.628136
2951,53.0,52.809044
2952,54.0,52.78783
2953,57.0,52.653145
2954,52.0,52.170162
2955,51.0,52.18907
2956,48.0,52.321194
2957,53.0,52.801327
2958,53.0,52.779255
2959,57.0,52.75473
2960,47.0,52.283035
2961,53.0,52.87004
2962,53.0,52.855602
2963,53.0,52.83956
2964,53.0,52.821735
2965,58.0,52.80193
2966,48.0,52.22437
2967,57.0,52.693745
2968,52.0,52.21527
2969,48.0,52.23919
2970,52.0,52.710213
2971,53.0,52.789127
2972,53.0,52.7657
2973,53.0,52.73967
2974,53.0,52.710747
2975,53.0,52.67861
2976,52.0,52.642902
2977,53.0,52.714336
2978,52.0,52.6826
2979,53.0,52.758442
2980,53.0,52.731606
2981,57.0,52.701786
2982,48.0,52.22421
2983,53.0,52.69357
2984,53.0,52.659523
2985,53.0,52.621693
2986,52.0,52.579662
2987,52.0,52.64407
2988,53.0,52.715633
2989,53.0,52.68404
2990,53.0,52.648937
2991,53.0,52.609932
2992,52.0,52.566593
2993,54.0,52.629547
2994,54.0,52.477276
2995,53.0,52.308083
2996,53.0,52.231205
2997,58.0,52.145786
2998,51.0,51.49532
2999,48.0,51.550358
3000,47.0,51.944843
3001,50.0,52.49427
3002,53.0,52.77141
3003,53.0,52.746014
3004,53.0,52.717796
3005,53.0,52.686443
3006,53.0,52.651608
3007,53.0,52.6129
3008,55.0,52.569893
3009,48.0,52.29988
3010,53.0,52.77765
3011,53.0,52.752945
3012,53.0,52.7255
3013,52.0,52.695
3014,52.0,52.77222
3015,53.0,52.858025
3016,53.0,52.84225
3017,52.0,52.824726
3018,53.0,52.916363
3019,53.0,52.907074
3020,52.0,52.89675
3021,53.0,52.99639
3022,54.0,52.995995
3023,53.0,52.884438
3024,57.0,52.8716
3025,48.0,52.41289
3026,53.0,52.903214
3027,57.0,52.892464
3028,52.0,52.43607
3029,48.0,52.484524
3030,52.0,52.982807
3031,53.0,53.092007
3032,53.0,53.102234
3033,54.0,53.113594
3034,53.0,53.015102
3035,53.0,53.016785
3036,53.0,53.01865
3037,54.0,53.020725
3038,52.0,52.911915
3039,53.0,53.01324
3040,57.0,53.014713
3041,52.0,52.571903
3042,55.0,52.63545
3043,52.0,52.372723
3044,51.0,52.414135
3045,49.0,52.571266
3046,54.0,52.968075
3047,53.0,52.853416
3048,53.0,52.83713
3049,53.0,52.81904
3050,53.0,52.798935
3051,53.0,52.776596
3052,53.0,52.751778
3053,53.0,52.7242
3054,53.0,52.693558
3055,53.0,52.65951
3056,53.0,52.62168
3057,55.0,52.579647
3058,52.0,52.31072
3059,48.0,52.345245
3060,54.0,52.828053
3061,52.0,52.697834
3062,52.0,52.77537
3063,53.0,52.861526
3064,53.0,52.84614
3065,53.0,52.82905
3066,53.0,52.810055
3067,52.0,52.78895
3068,53.0,52.876614
3069,53.0,52.862907
3070,53.0,52.847675
3071,53.0,52.830753
3072,53.0,52.81195
3073,52.0,52.791058
3074,52.0,52.878952
3075,54.0,52.976616
3076,57.0,52.862907
3077,48.0,52.403233
3078,52.0,52.892483
3079,53.0,52.99165
3080,53.0,52.990723
3081,54.0,52.989693
3082,53.0,52.877438
3083,53.0,52.863823
3084,53.0,52.848694
3085,53.0,52.831886
3086,58.0,52.81321
3087,55.0,52.2369
3088,50.0,51.92989
3089,49.0,52.14432
3090,48.0,52.49369
3091,54.0,52.992992
3092,57.0,52.881104
3093,48.0,52.42345
3094,53.0,52.914948
3095,53.0,52.9055
3096,53.0,52.9055
3097,53.0,52.895
3098,53.0,52.883335
3099,53.0,52.870373
3100,53.0,52.855972
3101,53.0,52.839973
3102,52.0,52.822193
3103,52.0,52.913548
3104,53.0,53.015053
3105,53.0,53.016727
3106,58.0,53.01859
3107,48.0,52.4651
3108,53.0,52.961224
3109,57.0,52.956917
3110,48.0,52.507687
3111,53.0,53.008545
3112,53.0,53.009495
3113,53.0,53.01055
3114,53.0,53.011726
3115,53.0,53.01303
3116,52.0,53.01448
3117,54.0,53.1272
3118,57.0,53.030224
3119,53.0,52.589138
3120,49.0,52.543488
3121,53.0,52.93721
3122,55.0,52.930237
3123,52.0,52.700264
3124,53.0,52.778072
3125,55.0,52.753414
3126,48.0,52.503796
3127,53.0,53.00422
3128,53.0,53.00469
3129,53.0,53.00521
3130,54.0,53.00579
3131,57.0,52.895325
3132,55.0,52.43925
3133,53.0,52.154724
3134,49.0,52.060806
3135,48.0,52.400894
3136,53.0,52.889885
3137,53.0,52.87765
3138,54.0,52.86406
3139,53.0,52.737843
3140,53.0,52.708717
3141,55.0,52.676353
3142,48.0,52.41817
3143,53.0,52.90908
3144,53.0,52.89898
3145,53.0,52.887756
3146,54.0,52.875286
3147,54.0,52.750317
3148,55.0,52.61146
3149,51.0,52.34607
3150,49.0,52.495636
3151,53.0,52.88404
3152,54.0,52.87116
3153,53.0,52.74573
3154,53.0,52.717484
3155,53.0,52.686096
3156,50.0,52.651222
3157,53.0,52.945805
3158,52.0,52.939785
3159,53.0,53.044205
3160,53.0,53.049118
3161,53.0,53.054577
3162,53.0,53.060642
3163,53.0,53.067383
3164,53.0,53.07487
3165,53.0,53.08319
3166,53.0,53.092438
3167,53.0,53.10271
3168,53.0,53.114124
3169,53.0,53.12681
3170,53.0,53.1409
3171,57.0,53.15656
3172,48.0,52.72951
3173,53.0,53.255016
3174,54.0,53.283356
3175,53.0,53.203728
3176,57.0,53.226368
3177,55.0,52.807076
3178,51.0,52.56342
3179,49.0,52.737137
3180,52.0,53.152374
3181,53.0,53.280415
3182,53.0,53.311573
3183,53.0,53.346195
3184,54.0,53.384663
3185,54.0,53.31629
3186,54.0,53.240326
3187,58.0,53.15592
3188,51.0,52.61769
3189,51.0,52.79744
3190,53.0,52.997158
3191,53.0,52.996845
3192,53.0,52.9965
3193,53.0,52.996113
3194,53.0,52.99568
3195,54.0,52.995205
3196,53.0,52.88356
3197,53.0,52.870625
3198,53.0,52.85625
3199,53.0,52.840282
3200,53.0,52.822536
3201,52.0,52.802822
3202,53.0,52.892025
3203,54.0,52.88003
3204,54.0,52.755592
3205,50.0,52.617325
3206,53.0,52.90814
3207,55.0,52.897934
3208,55.0,52.66437
3209,51.0,52.404858
3210,52.0,52.560955
3211,53.0,52.623283
3212,53.0,52.58143
3213,53.0,52.534924
3214,53.0,52.48325
3215,53.0,52.425835
3216,53.0,52.36204
3217,53.0,52.29116
3218,53.0,52.212402
3219,54.0,52.124893
3220,52.0,51.91655
3221,50.0,51.90728
3222,52.0,52.1192
3223,50.0,52.132446
3224,49.0,52.369385
3225,53.0,52.74376
3226,53.0,52.71529
3227,53.0,52.68366
3228,52.0,52.64851
3229,53.0,52.720566
3230,52.0,52.689518
3231,54.0,52.766132
3232,53.0,52.629036
3233,53.0,52.58782
3234,53.0,52.542023
3235,53.0,52.49114
3236,55.0,52.4346
3237,49.0,52.14956
3238,52.0,52.499508
3239,49.0,52.555008
3240,53.0,52.95001
3241,53.0,52.944458
3242,53.0,52.93829
3243,53.0,52.931435
3244,53.0,52.923817
3245,54.0,52.915356
3246,52.0,52.794838
3247,53.0,52.883156
3248,54.0,52.870174
3249,53.0,52.744637
3250,54.0,52.716267
3251,53.0,52.573627
3252,58.0,52.526257
3253,44.0,51.918064
3254,53.0,52.797848
3255,53.0,52.77539
3256,53.0,52.750435
3257,53.0,52.722706
3258,53.0,52.6919
3259,52.0,52.657665
3260,53.0,52.73074
3261,53.0,52.700825
3262,53.0,52.667583
3263,53.0,52.63065
3264,54.0,52.58961
3265,55.0,52.4329
3266,52.0,52.147667
3267,53.0,52.164074
3268,48.0,52.071198
3269,48.0,52.523556
3270,53.0,53.026176
3271,53.0,53.029087
3272,52.0,53.032322
3273,53.0,53.147026
3274,54.0,53.163364
3275,54.0,53.070404
3276,53.0,52.967117
3277,54.0,52.963467
3278,53.0,52.848297
3279,53.0,52.831444
3280,53.0,52.812717
3281,53.0,52.791912
3282,54.0,52.768795
3283,53.0,52.631996
3284,52.0,52.59111
3285,50.0,52.65679
3286,53.0,52.951992
3287,53.0,52.94666
3288,53.0,52.940735
3289,53.0,52.93415
3290,53.0,52.926838
3291,53.0,52.918713
3292,52.0,52.909683
3293,53.0,53.01076
3294,53.0,53.01196
3295,53.0,53.01329
3296,53.0,53.01477
3297,57.0,53.016415
3298,53.0,52.573795
3299,49.0,52.52644
3300,53.0,52.918266
3301,53.0,52.909187
3302,52.0,52.899097
3303,53.0,52.998997
3304,53.0,52.998886
3305,53.0,52.998764
3306,54.0,52.99863
3307,53.0,52.887367
3308,53.0,52.874855
3309,57.0,52.86095
3310,55.0,52.40106
3311,51.0,52.11229
3312,48.0,52.23588
3313,52.0,52.70654
3314,53.0,52.785046
3315,54.0,52.761166
3316,52.0,52.623516
3317,55.0,52.692795
3318,48.0,52.43644
3319,53.0,52.92938
3320,53.0,52.921535
3321,53.0,52.91282
3322,52.0,52.903133
3323,53.0,53.003483
3324,53.0,53.003872
3325,53.0,53.004303
3326,53.0,53.004784
3327,57.0,53.005318
3328,52.0,52.561466
3329,48.0,52.62385
3330,53.0,53.137615
3331,56.0,53.15291
3332,51.0,52.836567
3333,58.0,53.040634
3334,50.0,52.489597
3335,53.0,52.76622
3336,52.0,52.740246
3337,53.0,52.822495
3338,53.0,52.802773
3339,52.0,52.78086
3340,52.0,52.867622
3341,53.0,52.964027
3342,53.0,52.960033
3343,53.0,52.955593
3344,53.0,52.95066
3345,53.0,52.945183
3346,53.0,52.939095
3347,56.0,52.93233
3348,48.0,52.59148
3349,56.0,53.101646
3350,51.0,52.77961
3351,53.0,52.97735
3352,53.0,52.974834
3353,57.0,52.972042
3354,55.0,52.52449
3355,52.0,52.249435
3356,49.0,52.277153
3357,56.0,52.64128
3358,52.0,52.268093
3359,48.0,52.297882
3360,53.0,52.775425
3361,53.0,52.750473
3362,53.0,52.72275
3363,57.0,52.691948
3364,48.0,52.213276
3365,53.0,52.68142
3366,52.0,52.646023
3367,53.0,52.717804
3368,53.0,52.68645
3369,53.0,52.651615
3370,53.0,52.612907
3371,52.0,52.5699
3372,53.0,52.633224
3373,53.0,52.592472
3374,53.0,52.547195
3375,52.0,52.496887
3376,53.0,52.552097
3377,53.0,52.50233
3378,52.0,52.447037
3379,55.0,52.496708
3380,49.0,52.218567
3381,53.0,52.576183
3382,53.0,52.529095
3383,49.0,52.476776
3384,53.0,52.863083
3385,53.0,52.847874
3386,53.0,52.830975
3387,57.0,52.812195
3388,52.0,52.34688
3389,48.0,52.385426
3390,53.0,52.872696
3391,53.0,52.858555
3392,53.0,52.842842
3393,53.0,52.825382
3394,53.0,52.805984
3395,55.0,52.784428
3396,49.0,52.538254
3397,55.0,52.931393
3398,59.0,52.70155
3399,49.0,52.00172
3400,52.0,52.335243
3401,48.0,52.372494
3402,53.0,52.85833
3403,53.0,52.84259
3404,52.0,52.825104
3405,53.0,52.916782
3406,53.0,52.90754
3407,53.0,52.897266
3408,53.0,52.885853
3409,53.0,52.873173
3410,53.0,52.859085
3411,52.0,52.84343
3412,53.0,52.937145
3413,53.0,52.930164
3414,57.0,52.92241
3415,49.0,52.469345
3416,53.0,52.854828
3417,57.0,52.8387
3418,52.0,52.37633
3419,48.0,52.418148
3420,53.0,52.909058
3421,53.0,52.898956
3422,53.0,52.88773
3423,53.0,52.87526
3424,53.0,52.8614
3425,53.0,52.846004
3426,53.0,52.828896
3427,52.0,52.809887
3428,53.0,52.899876
3429,53.0,52.888752
3430,55.0,52.876392
3431,52.0,52.640438
3432,53.0,52.711597
3433,53.0,52.679554
3434,53.0,52.64395
3435,53.0,52.604393
3436,53.0,52.56044
3437,53.0,52.5116
3438,52.0,52.457336
3439,54.0,52.508152
3440,53.0,52.342392
3441,53.0,52.269325
3442,58.0,52.18814
3443,51.0,51.54238
3444,52.0,51.60265
3445,48.0,51.558502
3446,49.0,51.953896
3447,54.0,52.282104
3448,49.0,52.09123
3449,48.0,52.434696
3450,53.0,52.92744
3451,53.0,52.91938
3452,53.0,52.910423
3453,53.0,52.90047
3454,53.0,52.889416
3455,52.0,52.877132
3456,53.0,52.97459
3457,53.0,52.971767
3458,55.0,52.96863
3459,51.0,52.742924
3460,53.0,52.936584
3461,53.0,52.92954
3462,53.0,52.92171
3463,55.0,52.913013
3464,48.0,52.681126
3465,54.0,53.201252
3466,53.0,53.112503
3467,53.0,53.125008
3468,53.0,53.1389
3469,53.0,53.154335
3470,53.0,53.171486
3471,54.0,53.190544
3472,53.0,53.100605
3473,54.0,53.111786
3474,58.0,53.013096
3475,50.0,52.459
3476,53.0,52.732224
3477,57.0,52.702473
3478,52.0,52.22497
3479,52.0,52.24997
3480,47.0,52.277744
3481,53.0,52.864162
3482,53.0,52.84907
3483,53.0,52.832302
3484,53.0,52.81367
3485,53.0,52.79297
3486,54.0,52.769966
3487,55.0,52.633297
3488,52.0,52.37033
3489,50.0,52.41148
3490,53.0,52.679424
3491,48.0,52.643806
3492,54.0,53.159786
3493,53.0,53.06643
3494,53.0,53.073814
3495,57.0,53.08202
3496,51.0,52.64669
3497,53.0,52.82966
3498,53.0,52.810734
3499,53.0,52.789707
3500,53.0,52.766342
3501,52.0,52.740383
3502,53.0,52.822647
3503,53.0,52.802944
3504,54.0,52.78105
3505,53.0,52.64561
3506,57.0,52.606236
3507,51.0,52.11804
3508,52.0,52.242268
3509,48.0,52.269188
3510,53.0,52.743546
3511,53.0,52.715054
3512,52.0,52.683395
3513,53.0,52.759327
3514,53.0,52.73259
3515,53.0,52.70288
3516,53.0,52.66987
3517,53.0,52.63319
3518,53.0,52.592438
3519,53.0,52.547157
3520,53.0,52.496845
3521,52.0,52.44094
3522,55.0,52.489933
3523,48.0,52.211037
3524,54.0,52.678932
3525,53.0,52.532146
3526,54.0,52.480164
3527,53.0,52.31129
3528,51.0,52.234768
3529,48.0,52.371967
3530,53.0,52.857742
3531,59.0,52.841938
3532,53.0,52.157707
3533,53.0,52.06412
3534,48.0,51.960136
3535,52.0,52.400154
3536,53.0,52.444614
3537,55.0,52.382908
3538,51.0,52.09212
3539,48.0,52.21347
3540,53.0,52.681637
3541,52.0,52.646267
3542,53.0,52.718075
3543,53.0,52.686752
3544,55.0,52.65195
3545,48.0,52.391056
3546,53.0,52.878952
3547,53.0,52.865505
3548,53.0,52.850563
3549,53.0,52.83396
3550,53.0,52.815514
3551,53.0,52.795017
3552,53.0,52.772243
3553,54.0,52.74694
3554,52.0,52.60771
3555,52.0,52.675236
3556,53.0,52.750263
3557,53.0,52.72252
3558,53.0,52.69169
3559,53.0,52.657433
3560,56.0,52.619373
3561,47.0,52.24375
3562,54.0,52.826393
3563,53.0,52.69599
3564,53.0,52.662216
3565,52.0,52.624687
3566,54.0,52.6941
3567,55.0,52.549
3568,51.0,52.27667
3569,50.0,52.418526
3570,52.0,52.687252
3571,53.0,52.763615
3572,53.0,52.73735
3573,53.0,52.708168
3574,53.0,52.675743
3575,57.0,52.639717
3576,55.0,52.155243
3577,50.0,51.83916
3578,48.0,52.043514
3579,49.0,52.492798
3580,53.0,52.880886
3581,52.0,52.867653
3582,53.0,52.964058
3583,53.0,52.960068
3584,54.0,52.95563
3585,54.0,52.83959
3586,51.0,52.71065
3587,53.0,52.900726
3588,53.0,52.889698
3589,53.0,52.877445
3590,52.0,52.86383
3591,53.0,52.959812
3592,53.0,52.95535
3593,52.0,52.95039
3594,52.0,53.05599
3595,53.0,53.17332
3596,56.0,53.19258
3597,53.0,52.88065
3598,51.0,52.86739
3599,52.0,53.07488
3600,54.0,53.19431
3601,57.0,53.10479
3602,51.0,52.67199
3603,53.0,52.85777
3604,53.0,52.84197
3605,53.0,52.824413
3606,53.0,52.804905
3607,53.0,52.78323
3608,53.0,52.759148
3609,55.0,52.732388
3610,48.0,52.48043
3611,53.0,52.97826
3612,53.0,52.975845
3613,53.0,52.973164
3614,53.0,52.970184
3615,54.0,52.966873
3616,53.0,52.85208
3617,57.0,52.835648
3618,50.0,52.372944
3619,53.0,52.636604
3620,57.0,52.59623
3621,51.0,52.106922
3622,52.0,52.229916
3623,48.0,52.255463
3624,52.0,52.728294
3625,57.0,52.809216
3626,50.0,52.343575
3627,53.0,52.603973
3628,50.0,52.559975
3629,53.0,52.844418
3630,53.0,52.827133
3631,53.0,52.807926
3632,53.0,52.786587
3633,55.0,52.76288
3634,48.0,52.514313
3635,53.0,53.015907
3636,53.0,53.017677
3637,53.0,53.019646
3638,53.0,53.02183
3639,54.0,53.024258
3640,53.0,52.91584
3641,55.0,52.90649
3642,51.0,52.673878
3643,53.0,52.859867
3644,53.0,52.8443
3645,53.0,52.827003
3646,53.0,52.807785
3647,53.0,52.78643
3648,53.0,52.78643
3649,53.0,52.762703
3650,55.0,52.73634
3651,49.0,52.48482
3652,53.0,52.872025
3653,53.0,52.857807
3654,53.0,52.84201
3655,53.0,52.82446
3656,52.0,52.80496
3657,57.0,52.894398
3658,53.0,52.43822
3659,49.0,52.375805
3660,53.0,52.750893
3661,53.0,52.723217
3662,53.0,52.692467
3663,53.0,52.6583
3664,54.0,52.620335
3665,58.0,52.467037
3666,51.0,51.852264
3667,49.0,51.946964
3668,49.0,52.274406
3669,50.0,52.63823
3670,53.0,52.931366
3671,53.0,52.923744
3672,53.0,52.915276
3673,53.0,52.905865
3674,53.0,52.89541
3675,55.0,52.88379
3676,52.0,52.648655
3677,53.0,52.72073
3678,52.0,52.6897
3679,53.0,52.766335
3680,52.0,52.740376
3681,53.0,52.82264
3682,52.0,52.802937
3683,52.0,52.802937
3684,53.0,52.89215
3685,53.0,52.88017
3686,52.0,52.866856
3687,54.0,52.963173
3688,57.0,52.84797
3689,53.0,52.38663
3690,48.0,52.31848
3691,53.0,52.798317
3692,55.0,52.77591
3693,48.0,52.52879
3694,53.0,53.03199
3695,53.0,53.035545
3696,53.0,53.039497
3697,52.0,53.043888
3698,54.0,53.159878
3699,53.0,53.066532
3700,53.0,53.073925
3701,53.0,53.08214
3702,52.0,53.09127
3703,53.0,53.212524
3704,54.0,53.23614
3705,53.0,53.151268
3706,54.0,53.16808
3707,53.0,53.07564
3708,58.0,53.08405
3709,48.0,52.537834
3710,53.0,53.04204
3711,57.0,53.046715
3712,53.0,52.60746
3713,52.0,52.563847
3714,51.0,52.626495
3715,52.0,52.80722
3716,53.0,52.89691
3717,53.0,52.88546
3718,57.0,52.872734
3719,53.0,52.41415
3720,47.0,52.349056
3721,53.0,52.943398
3722,53.0,52.93711
3723,54.0,52.930126
3724,54.0,52.811253
3725,51.0,52.67917
3726,53.0,52.865746
3727,52.0,52.85083
3728,53.0,52.945366
3729,53.0,52.939297
3730,55.0,52.932556
3731,52.0,52.702843
3732,53.0,52.780937
3733,53.0,52.7566
3734,52.0,52.729557
3735,53.0,52.81062
3736,53.0,52.78958
3737,53.0,52.766205
3738,54.0,52.74023
3739,53.0,52.600258
3740,52.0,52.555843
3741,52.0,52.617603
3742,52.0,52.686226
3743,53.0,52.762474
3744,52.0,52.736084
3745,53.0,52.81787
3746,57.0,52.797638
3747,49.0,52.330708
3748,57.0,52.700787
3749,52.0,52.223095
3750,48.0,52.247883
3751,53.0,52.71987
3752,53.0,52.688747
3753,53.0,52.654167
3754,53.0,52.61574
3755,57.0,52.573048
3756,55.0,52.081165
3757,54.0,51.75685
3758,44.0,51.50761
3759,48.0,52.34179
3760,53.0,52.82421
3761,53.0,52.80468
3762,57.0,52.782978
3763,48.0,52.31442
3764,53.0,52.7938
3765,53.0,52.770893
3766,53.0,52.745438
3767,53.0,52.717155
3768,53.0,52.68573
3769,53.0,52.650814
3770,53.0,52.61202
3771,52.0,52.568913
3772,53.0,52.632126
3773,56.0,52.59125
3774,48.0,52.212505
3775,54.0,52.680565
3776,53.0,52.533962
3777,54.0,52.48218
3778,55.0,52.313534
3779,48.0,52.015038
3780,48.0,52.461155
3781,53.0,52.95684
3782,52.0,52.95205
3783,54.0,53.057835
3784,53.0,52.953148
3785,53.0,52.947945
3786,53.0,52.94216
3787,53.0,52.935738
3788,53.0,52.9286
3789,55.0,52.92067
3790,52.0,52.689636
3791,53.0,52.766262
3792,53.0,52.740295
3793,54.0,52.71144
3794,53.0,52.568268
3795,49.0,52.5203
3796,53.0,52.911446
3797,53.0,52.901608
3798,54.0,52.89068
3799,56.0,52.76742
3800,55.0,52.40825
3801,52.0,52.120277
3802,48.0,52.13364
3803,48.0,52.592937
3804,53.0,53.103268
3805,54.0,53.114746
3806,52.0,53.016384
3807,54.0,53.129314
3808,57.0,53.03257
3809,53.0,52.591743
3810,49.0,52.546383
3811,54.0,52.940426
3812,53.0,52.822697
3813,53.0,52.802998
3814,52.0,52.78111
3815,53.0,52.8679
3816,53.0,52.853226
3817,53.0,52.83692
3818,53.0,52.818806
3819,53.0,52.798676
3820,53.0,52.77631
3821,53.0,52.751457
3822,53.0,52.723843
3823,52.0,52.69316
3824,53.0,52.77018
3825,53.0,52.744648
3826,52.0,52.716278
3827,53.0,52.795864
3828,53.0,52.773186
3829,53.0,52.747986
3830,53.0,52.719986
3831,53.0,52.688877
3832,53.0,52.65431
3833,53.0,52.615902
3834,52.0,52.573227
3835,53.0,52.63692
3836,53.0,52.59658
3837,54.0,52.551758
3838,55.0,52.390842
3839,48.0,52.100937
3840,48.0,52.5566
3841,54.0,53.06289
3842,52.0,52.958767
3843,54.0,53.065296
3844,57.0,52.96144
3845,53.0,52.512714
3846,52.0,52.458572
3847,48.0,52.509525
3848,53.0,53.010586
3849,54.0,53.011765
3850,53.0,52.90196
3851,53.0,52.891068
3852,53.0,52.878967
3853,53.0,52.86552
3854,57.0,52.850582
3855,48.0,52.389538
3856,53.0,52.877266
3857,55.0,52.863632
3858,50.0,52.62626
3859,53.0,52.918068
3860,53.0,52.908966
3861,53.0,52.898853
3862,53.0,52.887615
3863,53.0,52.87513
3864,53.0,52.86126
3865,53.0,52.845844
3866,53.0,52.82872
3867,53.0,52.809692
3868,55.0,52.788548
3869,53.0,52.54283
3870,50.0,52.49204
3871,52.0,52.768932
3872,53.0,52.85437
3873,57.0,52.838192
3874,48.0,52.37577
3875,53.0,52.86197
3876,53.0,52.846634
3877,53.0,52.829594
3878,53.0,52.81066
3879,53.0,52.789627
3880,53.0,52.766254
3881,53.0,52.740284
3882,53.0,52.71143
3883,53.0,52.679367
3884,53.0,52.64374
3885,52.0,52.60416
3886,53.0,52.67129
3887,52.0,52.63477
3888,58.0,52.7053
3889,55.0,52.117
3890,49.0,51.79667
3891,47.0,52.10741
3892,52.0,52.6749
3893,53.0,52.74989
3894,53.0,52.722103
3895,53.0,52.691227
3896,53.0,52.65692
3897,53.0,52.618805
3898,57.0,52.57645
3899,52.0,52.084946
3900,48.0,52.094383
3901,52.0,52.549316
3902,53.0,52.61035
3903,55.0,52.56706
3904,49.0,52.296734
3905,55.0,52.663036
3906,48.0,52.403374
3907,53.0,52.89264
3908,52.0,52.880714
3909,53.0,52.978573
3910,53.0,52.976192
3911,54.0,52.97355
3912,53.0,52.859497
3913,53.0,52.843887
3914,53.0,52.82654
3915,53.0,52.80727
3916,54.0,52.78586
3917,53.0,52.650955
3918,53.0,52.612175
3919,55.0,52.569084
3920,49.0,52.298985
3921,53.0,52.66554
3922,50.0,52.62838
3923,53.0,52.920425
3924,53.0,52.911587
3925,53.0,52.901764
3926,52.0,52.89085
3927,54.0,52.989834
3928,55.0,52.877594
3929,52.0,52.641773
3930,49.0,52.71308
3931,53.0,53.125645
3932,54.0,53.139606
3933,57.0,53.044006
3934,53.0,52.60445
3935,54.0,52.5605
3936,48.0,52.40056
3937,52.0,52.88951
3938,52.0,52.988346
3939,53.0,53.098164
3940,53.0,53.109074
3941,54.0,53.121197
3942,54.0,53.023552
3943,53.0,52.91506
3944,53.0,52.90562
3945,54.0,52.895138
3946,53.0,52.772377
3947,53.0,52.74709
3948,53.0,52.71899
3949,53.0,52.68777
3950,53.0,52.65308
3951,53.0,52.614536
3952,51.0,52.57171
3953,52.0,52.746346
3954,52.0,52.829273
3955,53.0,52.921417
3956,53.0,52.91269
3957,53.0,52.90299
3958,55.0,52.892212
3959,51.0,52.658016
3960,52.0,52.842243
3961,53.0,52.935825
3962,53.0,52.928696
3963,53.0,52.920776
3964,53.0,52.911976
3965,53.0,52.9022
3966,53.0,52.891335
3967,53.0,52.87926
3968,53.0,52.86585
3969,52.0,52.850945
3970,53.0,52.945496
3971,53.0,52.93944
3972,53.0,52.932716
3973,53.0,52.925243
3974,53.0,52.91694
3975,53.0,52.90771
3976,53.0,52.897457
3977,58.0,52.886066
3978,53.0,52.317856
3979,52.0,52.242065
3980,48.0,52.268963
3981,52.0,52.743294
3982,53.0,52.825882
3983,53.0,52.806538
3984,55.0,52.785046
3985,49.0,52.53894
3986,53.0,52.932156
3987,55.0,52.92462
3988,55.0,52.694027
3989,49.0,52.43781
3990,52.0,52.819786
3991,52.0,52.910873
3992,53.0,53.01208
3993,53.0,53.013428
3994,54.0,53.014923
3995,53.0,52.90547
3996,53.0,52.89497
3997,53.0,52.8833
3998,53.0,52.870335
3999,53.0,52.85593
4000,59.0,52.839924
4001,44.0,52.15547
4002,53.0,53.061634
4003,54.0,53.068485
4004,53.0,52.964985
4005,53.0,52.961098
4006,53.0,52.95678
4007,53.0,52.95198
4008,54.0,52.946648
4009,53.0,52.82961
4010,53.0,52.81068
4011,53.0,52.789646
4012,53.0,52.766277
4013,52.0,52.74031
4014,53.0,52.822567
4015,52.0,52.802853
4016,59.0,52.89206
4017,51.0,52.213398
4018,53.0,52.348225
4019,50.0,52.275806
4020,53.0,52.528675
4021,56.0,52.476307
4022,55.0,52.08479
4023,52.0,51.76088
4024,47.0,51.73431
4025,48.0,52.260345
4026,53.0,52.73372
4027,52.0,52.704136
4028,53.0,52.782375
4029,52.0,52.758198
4030,53.0,52.84244
4031,53.0,52.824936
4032,55.0,52.805485
4033,49.0,52.56165
4034,53.0,52.957386
4035,53.0,52.952652
4036,53.0,52.94739
4037,54.0,52.941547
4038,53.0,52.82394
4039,53.0,52.80438
4040,53.0,52.782646
4041,53.0,52.7585
4042,52.0,52.731667
4043,53.0,52.812965
4044,53.0,52.792187
4045,53.0,52.7691
4046,53.0,52.743446
4047,57.0,52.714943
4048,51.0,52.238827
4049,48.0,52.376476
4050,52.0,52.862755
4051,53.0,52.95862
4052,52.0,52.95402
4053,53.0,53.060024
4054,53.0,53.066696
4055,53.0,53.07411
4056,53.0,53.082344
4057,53.0,53.091496
4058,53.0,53.101665
4059,53.0,53.112965
4060,53.0,53.12552
4061,54.0,53.13947
4062,54.0,53.043854
4063,54.0,52.937614
4064,53.0,52.819572
4065,56.0,52.799526
4066,53.0,52.44392
4067,53.0,52.382137
4068,53.0,52.382137
4069,52.0,52.313488
4070,48.0,52.34832
4071,52.0,52.83147
4072,53.0,52.923855
4073,53.0,52.915398
4074,53.0,52.906
4075,53.0,52.895557
4076,53.0,52.883957
4077,53.0,52.871067
4078,58.0,52.856743
4079,52.0,52.28527
4080,48.0,52.316967
4081,52.0,52.79663
4082,57.0,52.885147
4083,48.0,52.42794
4084,53.0,52.919937
4085,53.0,52.911045
4086,53.0,52.901165
4087,53.0,52.890186
4088,53.0,52.877987
4089,53.0,52.864433
4090,53.0,52.849373
4091,53.0,52.832638
4092,53.0,52.814045
4093,53.0,52.793385
4094,52.0,52.770428
4095,53.0,52.856033
4096,53.0,52.84004
4097,53.0,52.822266
4098,54.0,52.80252
4099,51.0,52.669468
4100,53.0,52.85497
4101,53.0,52.838856
4102,53.0,52.820953
4103,53.0,52.801064
4104,53.0,52.77896
4105,53.0,52.754402
4106,53.0,52.727116
4107,52.0,52.696796
4108,57.0,52.77422
4109,51.0,52.304688
4110,49.0,52.449657
4111,58.0,52.832954
4112,55.0,52.25884
4113,50.0,51.954266
4114,48.0,52.171406
4115,50.0,52.6349
4116,53.0,52.927666
4117,53.0,52.919632
4118,53.0,52.910706
4119,53.0,52.900787
4120,53.0,52.889767
4121,53.0,52.87752
4122,53.0,52.863914
4123,52.0,52.848797
4124,53.0,52.943108
4125,53.0,52.93679
4126,53.0,52.92977
4127,53.0,52.92197
4128,57.0,52.913303
4129,51.0,52.459225
4130,53.0,52.621365
4131,55.0,52.579296
4132,49.0,52.31033
4133,52.0,52.678143
4134,53.0,52.75349
4135,52.0,52.726105
4136,53.0,52.80678
4137,53.0,52.785316
4138,57.0,52.761463
4139,52.0,52.290516
4140,48.0,52.322796
4141,53.0,52.80311
4142,54.0,52.781235
4143,53.0,52.645817
4144,55.0,52.606464
4145,48.0,52.34052
4146,53.0,52.8228
4147,57.0,52.803112
4148,48.0,52.336792
4149,53.0,52.81866
4150,53.0,52.798515
4151,53.0,52.77613
4152,53.0,52.75126
4153,53.0,52.72362
4154,53.0,52.692917
4155,54.0,52.6588
4156,57.0,52.509777
4157,52.0,52.010864
4158,51.0,52.012074
4159,49.0,52.12453
4160,55.0,52.471703
4161,48.0,52.19078
4162,53.0,52.656425
4163,57.0,52.61825
4164,48.0,52.13139
4165,53.0,52.590435
4166,52.0,52.54493
4167,53.0,52.605476
4168,55.0,52.56164
4169,52.0,52.290714
4170,48.0,52.323017
4171,53.0,52.803356
4172,53.0,52.78151
4173,53.0,52.757236
4174,53.0,52.730267
4175,53.0,52.7003
4176,55.0,52.667
4177,48.0,52.40778
4178,53.0,52.897537
4179,54.0,52.886154
4180,52.0,52.762394
4181,54.0,52.847103
4182,53.0,52.719
4183,53.0,52.687782
4184,52.0,52.653095
4185,53.0,52.725662
4186,52.0,52.695183
4187,53.0,52.772427
4188,53.0,52.747143
4189,53.0,52.71905
4190,53.0,52.687836
4191,53.0,52.653152
4192,53.0,52.614616
4193,52.0,52.5718
4194,53.0,52.635334
4195,53.0,52.59482
4196,52.0,52.5498
4197,54.0,52.61089
4198,55.0,52.456543
4199,52.0,52.17394
4200,52.0,52.193268
4201,53.0,52.21474
4202,51.0,52.12749
4203,48.0,52.25277
4204,52.0,52.725304
4205,53.0,52.805893
4206,53.0,52.78433
4207,53.0,52.76037
4208,52.0,52.733746
4209,53.0,52.815273
4210,53.0,52.79475
4211,53.0,52.771946
4212,55.0,52.74661
4213,48.0,52.496235
4214,53.0,52.99582
4215,54.0,52.995358
4216,53.0,52.88373
4217,53.0,52.870815
4218,53.0,52.856464
4219,53.0,52.84052
4220,53.0,52.8228
4221,53.0,52.803112
4222,53.0,52.78124
4223,53.0,52.756935
4224,52.0,52.72993
4225,53.0,52.811035
4226,53.0,52.790043
4227,53.0,52.766716
4228,59.0,52.7408
4229,48.0,52.045334
4230,49.0,52.49482
4231,52.0,52.883133
4232,53.0,52.98126
4233,53.0,52.97918
4234,53.0,52.976868
4235,54.0,52.9743
4236,52.0,52.860332
4237,54.0,52.955925
4238,53.0,52.839916
4239,54.0,52.822132
4240,51.0,52.691257
4241,54.0,52.879177
4242,53.0,52.754642
4243,53.0,52.727383
4244,56.0,52.697094
4245,53.0,52.33011
4246,53.0,52.25568
4247,49.0,52.17298
4248,48.0,52.525536
4249,53.0,53.028374
4250,53.0,53.03153
4251,53.0,53.035034
4252,53.0,53.03893
4253,53.0,53.043255
4254,53.0,53.04806
4255,57.0,53.053402
4256,50.0,52.61489
4257,54.0,52.905437
4258,55.0,52.78382
4259,52.0,52.53758
4260,49.0,52.59731
4261,53.0,52.99701
4262,53.0,52.99668
4263,54.0,52.996315
4264,53.0,52.884796
4265,53.0,52.871998
4266,53.0,52.857777
4267,53.0,52.841976
4268,53.0,52.82442
4269,53.0,52.804916
4270,53.0,52.78324
4271,57.0,52.75916
4272,47.0,52.287956
4273,53.0,52.875507
4274,53.0,52.86168
4275,53.0,52.846313
4276,53.0,52.82924
4277,55.0,52.81027
4278,49.0,52.566967
4279,53.0,52.963295
4280,54.0,52.95922
4281,54.0,52.84358
4282,53.0,52.715088
4283,53.0,52.683434
4284,53.0,52.648262
4285,53.0,52.60918
4286,53.0,52.565758
4287,58.0,52.51751
4288,51.0,51.908344
4289,54.0,52.009274
4290,51.0,51.788082
4291,51.0,51.87565
4292,46.0,51.972946
4293,56.0,52.63661
4294,48.0,52.2629
4295,52.0,52.73656
4296,53.0,52.8184
4297,54.0,52.798225
4298,54.0,52.664696
4299,52.0,52.516327
4300,53.0,52.573696
4301,52.0,52.526333
4302,53.0,52.584816
4303,55.0,52.53869
4304,48.0,52.26521
4305,51.0,52.739124
4306,53.0,52.93236
4307,53.0,52.924847
4308,53.0,52.9165
4309,57.0,52.907223
4310,50.0,52.45247
4311,53.0,52.724968
4312,53.0,52.694412
4313,52.0,52.66046
4314,53.0,52.73385
4315,53.0,52.704277
4316,53.0,52.67142
4317,54.0,52.634914
4318,55.0,52.48324
4319,51.0,52.203598
4320,48.0,52.337334
4321,53.0,52.819263
4322,53.0,52.799183
4323,53.0,52.77687
4324,53.0,52.752083
4325,54.0,52.72454
4326,52.0,52.58282
4327,53.0,52.64758
4328,53.0,52.608425
4329,53.0,52.56492
4330,53.0,52.51658
4331,53.0,52.462868
4332,53.0,52.403187
4333,57.0,52.336876
4334,53.0,51.818752
4335,51.0,51.687504
4336,46.0,51.763897
4337,48.0,52.40433
4338,53.0,52.893703
4339,53.0,52.881897
4340,53.0,52.86878
4341,53.0,52.8542
4342,53.0,52.838
4343,50.0,52.820004
4344,52.0,53.13334
4345,54.0,53.259266
4346,54.0,53.17696
4347,54.0,53.08551
4348,55.0,52.983902
4349,52.0,52.75989
4350,52.0,52.844326
4351,53.0,52.93814
4352,53.0,52.93127
4353,53.0,52.923637
4354,53.0,52.915154
4355,53.0,52.905727
4356,53.0,52.895256
4357,52.0,52.88362
4358,57.0,52.981804
4359,48.0,52.53534
4360,53.0,53.03927
4361,53.0,53.043633
4362,53.0,53.048485
4363,52.0,53.053875
4364,53.0,53.170975
4365,53.0,53.189976
4366,55.0,53.211086
4367,52.0,53.01232
4368,53.0,53.1248
4369,54.0,53.13867
4370,53.0,53.04297
4371,53.0,53.047745
4372,53.0,53.05305
4373,53.0,53.05895
4374,58.0,53.065502
4375,47.0,52.517227
4376,53.0,53.130253
4377,59.0,53.144726
4378,55.0,52.49414
4379,50.0,52.215714
4380,52.0,52.461906
4381,48.0,52.51323
4382,54.0,53.0147
4383,51.0,52.905224
4384,53.0,53.11692
4385,53.0,53.129913
4386,53.0,53.144352
4387,53.0,53.160393
4388,53.0,53.178215
4389,53.0,53.198017
4390,57.0,53.22002
4391,51.0,52.800022
4392,53.0,53.000027
4393,53.0,53.00003
4394,53.0,53.000034
4395,52.0,53.000042
4396,52.0,53.11116
4397,53.0,53.234623
4398,58.0,53.260693
4399,51.0,52.734104
4400,53.0,52.926785
4401,53.0,52.91865
4402,53.0,52.909615
4403,53.0,52.899574
4404,53.0,52.888416
4405,53.0,52.876022
4406,54.0,52.862247
4407,56.0,52.735832
4408,53.0,52.37315
4409,48.0,52.3035
4410,52.0,52.78167
4411,53.0,52.868523
4412,53.0,52.853916
4413,53.0,52.83769
4414,57.0,52.819656
4415,48.0,52.355175
4416,53.0,52.839085
4417,53.0,52.82121
4418,53.0,52.801346
4419,53.0,52.779274
4420,53.0,52.75475
4421,53.0,52.7275
4422,58.0,52.697224
4423,51.0,52.10803
4424,50.0,52.231148
4425,49.0,52.479053
4426,52.0,52.865616
4427,53.0,52.961796
4428,53.0,52.957554
4429,53.0,52.95284
4430,57.0,52.9476
4431,48.0,52.497337
4432,53.0,52.997044
4433,53.0,52.99672
4434,53.0,52.996357
4435,53.0,52.995956
4436,53.0,52.99551
4437,57.0,52.995014
4438,52.0,52.550014
4439,54.0,52.61113
4440,48.0,52.45681
4441,53.0,52.952015
4442,53.0,52.946686
4443,54.0,52.940765
4444,53.0,52.82307
4445,53.0,52.803413
4446,55.0,52.781574
4447,48.0,52.535084
4448,53.0,53.038982
4449,53.0,53.043316
4450,53.0,53.04813
4451,53.0,53.053482
4452,53.0,53.059425
4453,53.0,53.06603
4454,53.0,53.073368
4455,58.0,53.081524
4456,50.0,52.53503
4457,53.0,52.8167
4458,53.0,52.796337
4459,54.0,52.77371
4460,53.0,52.637455
4461,53.0,52.597176
4462,55.0,52.55242
4463,49.0,52.280468
4464,53.0,52.644962
4465,52.0,52.605515
4466,54.0,52.672794
4467,59.0,52.525326
4468,50.0,51.805916
4469,48.0,52.006577
4470,48.0,52.451756
4471,53.0,52.946396
4472,52.0,52.94044
4473,53.0,53.044933
4474,53.0,53.049927
4475,53.0,53.055477
4476,53.0,53.06164
4477,53.0,53.068493
4478,53.0,53.076107
4479,53.0,53.084564
4480,53.0,53.093964
4481,54.0,53.104404
4482,53.0,53.004894
4483,54.0,53.00544
4484,53.0,52.89493
4485,53.0,52.89493
4486,53.0,52.88326
4487,53.0,52.87029
4488,53.0,52.85588
4489,52.0,52.83987
4490,53.0,52.93319
4491,53.0,52.92577
4492,53.0,52.917526
4493,53.0,52.908363
4494,53.0,52.898182
4495,53.0,52.88687
4496,53.0,52.874306
4497,53.0,52.860344
4498,57.0,52.84483
4499,52.0,52.383144
4500,48.0,52.425716
4501,53.0,52.917465
4502,53.0,52.9083
4503,53.0,52.898113
4504,53.0,52.886795
4505,55.0,52.874218
4506,48.0,52.63802
4507,53.0,53.15336
4508,53.0,53.170403
4509,53.0,53.18934
4510,54.0,53.210377
4511,53.0,53.122643
4512,57.0,53.136272
4513,55.0,52.70697
4514,52.0,52.45219
4515,48.0,52.502434
4516,52.0,53.00271
4517,53.0,53.11412
4518,53.0,53.11412
4519,53.0,53.126804
4520,53.0,53.140896
4521,53.0,53.15655
4522,57.0,53.173946
4523,49.0,52.74883
4524,53.0,53.165367
4525,53.0,53.183743
4526,53.0,53.20416
4527,58.0,53.226845
4528,51.0,52.696495
4529,57.0,52.885
4530,52.0,52.427776
4531,48.0,52.475307
4532,53.0,52.972565
4533,52.0,52.969517
4534,53.0,53.07724
4535,53.0,53.085823
4536,53.0,53.09536
4537,53.0,53.105957
4538,57.0,53.117733
4539,51.0,52.68637
4540,53.0,52.87375
4541,53.0,52.859722
4542,53.0,52.84414
4543,57.0,52.826824
4544,47.0,52.36314
4545,53.0,52.959045
4546,54.0,52.9545
4547,53.0,52.83833
4548,53.0,52.82037
4549,53.0,52.80041
4550,53.0,52.778236
4551,53.0,52.753597
4552,53.0,52.726223
4553,54.0,52.695805
4554,53.0,52.55089
4555,52.0,52.50099
4556,54.0,52.55666
4557,58.0,52.39629
4558,55.0,51.77366
4559,47.0,51.415176
4560,48.0,51.905754
4561,48.0,52.33973
4562,53.0,52.821922
4563,53.0,52.80214
4564,53.0,52.780155
4565,53.0,52.75573
4566,53.0,52.728592
4567,54.0,52.698437
4568,52.0,52.553818
4569,53.0,52.615353
4570,54.0,52.572617
4571,53.0,52.414017
4572,49.0,52.34891
4573,53.0,52.721012
4574,53.0,52.690018
4575,56.0,52.65558
4576,48.0,52.283978
4577,53.0,52.75998
4578,53.0,52.73331
4579,52.0,52.703682
4580,53.0,52.781868
4581,53.0,52.757633
4582,52.0,52.730705
4583,53.0,52.811897
4584,53.0,52.791
4585,53.0,52.76778
4586,54.0,52.74198
4587,55.0,52.602203
4588,49.0,52.33578
4589,55.0,52.706425
4590,52.0,52.451584
4591,49.0,52.501762
4592,52.0,52.890846
4593,53.0,52.98983
4594,53.0,52.9887
4595,53.0,52.98745
4596,53.0,52.986057
4597,53.0,52.984512
4598,53.0,52.98279
4599,53.0,52.98088
4600,53.0,52.97876
4601,54.0,52.976402
4602,58.0,52.862667
4603,55.0,52.291855
4604,48.0,51.99095
4605,48.0,52.43439
4606,53.0,52.927105
4607,53.0,52.919006
4608,52.0,52.910007
4609,53.0,53.01112
4610,53.0,53.012356
4611,53.0,53.01373
4612,53.0,53.01526
4613,53.0,53.016956
4614,53.0,53.01884
4615,53.0,53.020935
4616,53.0,53.023262
4617,53.0,53.02585
4618,54.0,53.028725
4619,59.0,52.920803
4620,50.0,52.245335
4621,49.0,52.49482
4622,53.0,52.883133
4623,53.0,52.87015
4624,53.0,52.85573
4625,52.0,52.8397
4626,52.0,52.933
4627,53.0,53.036667
4628,53.0,53.040745
4629,54.0,53.045273
4630,53.0,52.93919
4631,53.0,52.932434
4632,54.0,52.92493
4633,53.0,52.805477
4634,53.0,52.783867
4635,53.0,52.759853
4636,52.0,52.733173
4637,53.0,52.814636
4638,53.0,52.79404
4639,52.0,52.77116
4640,53.0,52.856846
4641,53.0,52.840942
4642,53.0,52.823273
4643,53.0,52.80364
4644,53.0,52.781822
4645,53.0,52.757584
4646,57.0,52.73065
4647,53.0,52.25628
4648,53.0,52.173645
4649,51.0,52.08183
4650,50.0,52.202034
4651,49.0,52.446705
4652,55.0,52.82967
4653,49.0,52.588524
4654,55.0,52.987247
4655,51.0,52.76361
4656,53.0,52.95957
4657,53.0,52.955082
4658,53.0,52.950092
4659,53.0,52.94455
4660,53.0,52.93839
4661,53.0,52.931545
4662,53.0,52.923943
4663,52.0,52.915493
4664,53.0,53.017216
4665,53.0,53.01913
4666,53.0,53.02126
4667,53.0,53.023624
4668,57.0,53.026253
4669,48.0,52.584724
4670,57.0,53.09414
4671,49.0,52.660156
4672,53.0,53.06684
4673,54.0,53.07427
4674,53.0,52.97141
4675,53.0,52.968235
4676,53.0,52.964706
4677,53.0,52.96079
4678,54.0,52.956432
4679,55.0,52.84048
4680,52.0,52.600536
4681,48.0,52.667263
4682,53.0,53.18585
4683,54.0,53.2065
4684,56.0,53.118336
4685,52.0,52.798153
4686,57.0,52.886837
4687,49.0,52.42982
4688,53.0,52.810913
4689,53.0,52.789906
4690,54.0,52.766563
4691,57.0,52.629517
4692,53.0,52.14391
4693,51.0,52.04879
4694,48.0,52.165325
4695,53.0,52.628143
4696,52.0,52.58683
4697,53.0,52.652035
4698,52.0,52.613373
4699,53.0,52.681526
4700,54.0,52.64614
4701,51.0,52.495712
4702,55.0,52.661907
4703,48.0,52.402122
4704,53.0,52.89125
4705,54.0,52.87917
4706,53.0,52.75463
4707,53.0,52.72737
4708,54.0,52.697083
4709,55.0,52.552315
4710,52.0,52.28035
4711,48.0,52.3115
4712,53.0,52.790558
4713,53.0,52.76729
4714,53.0,52.741432
4715,53.0,52.712704
4716,54.0,52.680782
4717,53.0,52.534203
4718,53.0,52.48245
4719,48.0,52.424946
4720,52.0,52.91661
4721,54.0,53.018456
4722,53.0,52.909393
4723,52.0,52.899326
4724,53.0,52.999252
4725,54.0,52.999172
4726,53.0,52.88797
4727,53.0,52.875523
4728,53.0,52.861694
4729,53.0,52.84633
4730,53.0,52.829258
4731,54.0,52.810287
4732,53.0,52.678097
4733,55.0,52.642334
4734,49.0,52.38037
4735,56.0,52.755966
4736,55.0,52.39552
4737,52.0,52.106133
4738,49.0,52.117928
4739,53.0,52.464363
4740,52.0,52.40485
4741,48.0,52.449833
4742,53.0,52.94426
4743,53.0,52.93807
4744,53.0,52.93119
4745,52.0,52.923546
4746,53.0,53.02616
4747,53.0,53.02907
4748,54.0,53.032303
4749,58.0,52.92478
4750,48.0,52.36087
4751,53.0,52.845413
4752,52.0,52.82824
4753,53.0,52.920265
4754,53.0,52.911407
4755,53.0,52.901566
4756,53.0,52.89063
4757,53.0,52.87848
4758,52.0,52.86498
4759,53.0,52.96109
4760,53.0,52.956768
4761,53.0,52.951965
4762,53.0,52.946632
4763,54.0,52.940704
4764,53.0,52.823006
4765,55.0,52.80334
4766,50.0,52.55927
4767,53.0,52.843636
4768,55.0,52.826263
4769,53.0,52.58474
4770,51.0,52.5386
4771,52.0,52.70956
4772,53.0,52.788403
4773,53.0,52.764893
4774,53.0,52.738773
4775,53.0,52.70975
4776,53.0,52.677505
4777,53.0,52.641674
4778,52.0,52.601864
4779,55.0,52.66874
4780,55.0,52.409714
4781,54.0,52.121906
4782,49.0,51.91323
4783,48.0,52.236923
4784,52.0,52.707695
4785,54.0,52.786327
4786,52.0,52.651474
4787,52.0,52.72386
4788,53.0,52.80429
4789,53.0,52.782547
4790,54.0,52.75839
4791,53.0,52.62043
4792,53.0,52.57826
4793,53.0,52.5314
4794,53.0,52.479336
4795,52.0,52.421486
4796,54.0,52.46832
4797,55.0,52.29813
4798,51.0,51.997925
4799,49.0,52.10881
4800,50.0,52.454235
4801,52.0,52.72693
4802,53.0,52.8077
4803,53.0,52.78634
4804,52.0,52.7626
4805,53.0,52.847336
4806,52.0,52.830376
4807,53.0,52.92264
4808,53.0,52.914047
4809,53.0,52.9045
4810,54.0,52.89389
4811,53.0,52.77099
4812,53.0,52.745544
4813,57.0,52.717274
4814,51.0,52.241417
4815,48.0,52.379356
4816,52.0,52.865955
4817,53.0,52.962173
4818,53.0,52.957973
4819,53.0,52.953304
4820,53.0,52.94812
4821,53.0,52.94236
4822,53.0,52.93596
4823,54.0,52.928844
4824,57.0,52.809826
4825,53.0,52.344254
4826,52.0,52.271397
4827,48.0,52.30155
4828,56.0,52.779503
4829,55.0,52.421673
4830,48.0,52.135193
4831,50.0,52.59466
4832,53.0,52.882957
4833,53.0,52.869953
4834,53.0,52.855507
4835,53.0,52.839455
4836,53.0,52.821617
4837,54.0,52.8018
4838,52.0,52.668667
4839,52.0,52.742966
4840,53.0,52.82552
4841,53.0,52.806137
4842,53.0,52.7846
4843,53.0,52.76067
4844,53.0,52.73408
4845,55.0,52.704536
4846,50.0,52.449486
4847,51.0,52.721653
4848,53.0,52.912952
4849,53.0,52.903282
4850,53.0,52.892536
4851,53.0,52.8806
4852,53.0,52.867336
4853,53.0,52.8526
4854,53.0,52.836224
4855,53.0,52.836224
4856,53.0,52.818027
4857,53.0,52.79781
4858,53.0,52.775345
4859,57.0,52.750385
4860,53.0,52.278206
4861,48.0,52.19801
4862,53.0,52.66446
4863,52.0,52.62718
4864,52.0,52.696865
4865,53.0,52.774296
4866,53.0,52.74922
4867,53.0,52.72136
4868,53.0,52.690403
4869,57.0,52.656006
4870,52.0,52.17334
4871,52.0,52.1926
4872,48.0,52.214
4873,52.0,52.682224
4874,53.0,52.758026
4875,53.0,52.731144
4876,54.0,52.701275
4877,53.0,52.556973
4878,52.0,52.50775
4879,52.0,52.564167
4880,55.0,52.626854
4881,49.0,52.363174
4882,53.0,52.736862
4883,53.0,52.707626
4884,52.0,52.675144
4885,53.0,52.75016
4886,53.0,52.722404
4887,53.0,52.691563
4888,53.0,52.657295
4889,57.0,52.61922
4890,51.0,52.13247
4891,48.0,52.2583
4892,53.0,52.73145
4893,53.0,52.701614
4894,52.0,52.66846
4895,53.0,52.742737
4896,55.0,52.714153
4897,48.0,52.46017
4898,53.0,52.95575
4899,53.0,52.950836
4900,53.0,52.945377
4901,53.0,52.939312
4902,53.0,52.93257
4903,53.0,52.925083
4904,53.0,52.91676
4905,54.0,52.907513
4906,53.0,52.786125
4907,52.0,52.762363
4908,53.0,52.847073
4909,53.0,52.830082
4910,52.0,52.811203
4911,53.0,52.901337
4912,56.0,52.890377
4913,52.0,52.544865
4914,57.0,52.605404
4915,52.0,52.117115
4916,50.0,52.130127
4917,48.0,52.36681
4918,53.0,52.852013
4919,57.0,52.83557
4920,52.0,52.372856
4921,48.0,52.414284
4922,53.0,52.904762
4923,54.0,52.894184
4924,53.0,52.771317
4925,56.0,52.74591
4926,48.0,52.38435
4927,53.0,52.871502
4928,54.0,52.857227
4929,52.0,52.73025
4930,53.0,52.81139
4931,53.0,52.790436
4932,53.0,52.767155
4933,53.0,52.741283
4934,52.0,52.71254
4935,53.0,52.79171
4936,53.0,52.76857
4937,53.0,52.74286
4938,52.0,52.71429
4939,53.0,52.793655
4940,53.0,52.77073
4941,58.0,52.74526
4942,48.0,52.1614
4943,53.0,52.62378
4944,53.0,52.581978
4945,52.0,52.535534
4946,52.0,52.59504
4947,53.0,52.661156
4948,53.0,52.62351
4949,55.0,52.58168
4950,52.0,52.31298
4951,48.0,52.347755
4952,53.0,52.83084
4953,52.0,52.81205
4954,53.0,52.90228
4955,53.0,52.891422
4956,53.0,52.87936
4957,59.0,52.86596
4958,52.0,52.1844
4959,52.0,52.204887
4960,52.0,52.227654
4961,51.0,52.25295
4962,48.0,52.39217
4963,53.0,52.88019
4964,53.0,52.866882
4965,53.0,52.852093
4966,53.0,52.835663
4967,53.0,52.817406
4968,53.0,52.79712
4969,53.0,52.77458
4970,53.0,52.749535
4971,53.0,52.721706
4972,52.0,52.69079
4973,57.0,52.767544
4974,48.0,52.29727
4975,53.0,52.77475
4976,52.0,52.749725
4977,57.0,52.83303
4978,49.0,52.370033
4979,55.0,52.74448
4980,52.0,52.49387
4981,48.0,52.548744
4982,53.0,53.05416
4983,53.0,53.06018
4984,53.0,53.066868
4985,53.0,53.0743
4986,52.0,53.082558
4987,53.0,53.202843
4988,54.0,53.225384
4989,55.0,53.139317
4990,50.0,52.932575
4991,54.0,53.25842
4992,53.0,53.17602
4993,57.0,53.195583
4994,51.0,52.772873
4995,53.0,52.969864
4996,53.0,52.96652
4997,53.0,52.9628
4998,53.0,52.958668
4999,53.0,52.95408
5000,53.0,52.94898
5001,53.0,52.943314
5002,57.0,52.937016
5003,55.0,52.485573
5004,52.0,52.206192
5005,48.0,52.229103
5006,52.0,52.699005
5007,53.0,52.776672
5008,54.0,52.75186
5009,55.0,52.61318
5010,50.0,52.347977
5011,49.0,52.608864
5012,53.0,53.00985
5013,53.0,53.01095
5014,54.0,53.01217
5015,53.0,52.90241
5016,53.0,52.891567
5017,54.0,52.87952
5018,53.0,52.755024
5019,53.0,52.727806
5020,53.0,52.697563
5021,52.0,52.663963
5022,53.0,52.73774
5023,53.0,52.708603
5024,53.0,52.676228
5025,53.0,52.640255
5026,53.0,52.600285
5027,49.0,52.555874
5028,53.0,52.95097
5029,53.0,52.945526
5030,53.0,52.939476
5031,53.0,52.932755
5032,52.0,52.925285
5033,53.0,53.028095
5034,53.0,53.03122
5035,53.0,53.03469
5036,54.0,53.038548
5037,52.0,52.93172
5038,54.0,53.035248
5039,55.0,52.928055
5040,52.0,52.69784
5041,52.0,52.77538
5042,55.0,52.861534
5043,49.0,52.623928
5044,53.0,53.02659
5045,53.0,53.029545
5046,55.0,53.03283
5047,57.0,52.814255
5048,52.0,52.349174
5049,51.0,52.387974
5050,48.0,52.542194
5051,54.0,53.046886
5052,54.0,52.940983
5053,51.0,52.823315
5054,53.0,53.02591
5055,53.0,53.02879
5056,53.0,53.03199
5057,53.0,53.035545
5058,58.0,53.039497
5059,49.0,52.488335
5060,52.0,52.875927
5061,53.0,52.97325
5062,53.0,52.97028
5063,53.0,52.96698
5064,53.0,52.963314
5065,53.0,52.95924
5066,52.0,52.954712
5067,53.0,53.06079
5068,58.0,53.067547
5069,51.0,52.519497
5070,52.0,52.68833
5071,52.0,52.764812
5072,53.0,52.849792
5073,53.0,52.833107
5074,54.0,52.814564
5075,52.0,52.68285
5076,52.0,52.758724
5077,53.0,52.84303
5078,53.0,52.825592
5079,52.0,52.806217
5080,53.0,52.895798
5081,53.0,52.88422
5082,53.0,52.871357
5083,53.0,52.857067
5084,57.0,52.841187
5085,48.0,52.379097
5086,53.0,52.865665
5087,53.0,52.850742
5088,53.0,52.83416
5089,53.0,52.815735
5090,54.0,52.79526
5091,54.0,52.6614
5092,53.0,52.512665
5093,52.0,52.45852
5094,48.0,52.509468
5095,53.0,53.01052
5096,53.0,53.011692
5097,54.0,53.012993
5098,57.0,52.903324
5099,53.0,52.44814
5100,53.0,52.386826
5101,48.0,52.3187
5102,53.0,52.798557
5103,54.0,52.776176
5104,53.0,52.640198
5105,53.0,52.600224
5106,53.0,52.555805
5107,55.0,52.506454
5108,48.0,52.229397
5109,53.0,52.699333
5110,53.0,52.665928
5111,52.0,52.62881
5112,53.0,52.69868
5113,52.0,52.665203
5114,53.0,52.739117
5115,53.0,52.710133
5116,55.0,52.67793
5117,48.0,52.41992
5118,53.0,52.911026
5119,52.0,52.901142
5120,53.0,53.00127
5121,53.0,53.001415
5122,53.0,53.001575
5123,57.0,53.00175
5124,48.0,52.557503
5125,52.0,53.063896
5126,53.0,53.182106
5127,53.0,53.202343
5128,57.0,53.224827
5129,55.0,52.805363
5130,52.0,52.561516
5131,52.0,52.623905
5132,53.0,52.69323
5133,49.0,52.659145
5134,53.0,53.065716
5135,55.0,53.07302
5136,57.0,52.858913
5137,52.0,52.398792
5138,51.0,52.443104
5139,53.0,52.60345
5140,50.0,52.55939
5141,53.0,52.84377
5142,52.0,52.826412
5143,53.0,52.918236
5144,53.0,52.909153
5145,53.0,52.899063
5146,52.0,52.88785
5147,53.0,52.986504
5148,52.0,52.985004
5149,53.0,53.09445
5150,53.0,53.10495
5151,54.0,53.11661
5152,53.0,53.018456
5153,53.0,53.020508
5154,54.0,53.02279
5155,54.0,52.91421
5156,52.0,52.793568
5157,53.0,52.88174
5158,57.0,52.868603
5159,53.0,52.409557
5160,50.0,52.343956
5161,52.0,52.604397
5162,53.0,52.671555
5163,53.0,52.635063
5164,51.0,52.594517
5165,53.0,52.771687
5166,53.0,52.746323
5167,53.0,52.71814
5168,53.0,52.686825
5169,53.0,52.65203
5170,52.0,52.61337
5171,53.0,52.681522
5172,52.0,52.646137
5173,52.0,52.71793
5174,53.0,52.7977
5175,53.0,52.775223
5176,53.0,52.75025
5177,53.0,52.722504
5178,53.0,52.691673
5179,56.0,52.657417
5180,53.0,52.286022
5181,52.0,52.206696
5182,51.0,52.229664
5183,49.0,52.366295
5184,53.0,52.740326
5185,53.0,52.711475
5186,53.0,52.67942
5187,53.0,52.643803
5188,59.0,52.60423
5189,48.0,51.89359
5190,48.0,52.326214
5191,53.0,52.806908
5192,53.0,52.785454
5193,53.0,52.76162
5194,52.0,52.735134
5195,56.0,52.816814
5196,49.0,52.46313
5197,53.0,52.847923
5198,52.0,52.831028
5199,53.0,52.923367
5200,53.0,52.914856
5201,53.0,52.9054
5202,53.0,52.89489
5203,53.0,52.883213
5204,57.0,52.87024
5205,48.0,52.411377
5206,53.0,52.90153
5207,52.0,52.890594
5208,54.0,52.98955
5209,54.0,52.87728
5210,53.0,52.752533
5211,57.0,52.72504
5212,47.0,52.250046
5213,53.0,52.833385
5214,53.0,52.814877
5215,53.0,52.794308
5216,53.0,52.771454
5217,52.0,52.746063
5218,57.0,52.82896
5219,52.0,52.365513
5220,49.0,52.406128
5221,52.0,52.784588
5222,53.0,52.871765
5223,53.0,52.857517
5224,57.0,52.84169
5225,53.0,52.379658
5226,52.0,52.310734
5227,52.0,52.34526
5228,48.0,52.383625
5229,52.0,52.870697
5230,53.0,52.96744
5231,53.0,52.963825
5232,53.0,52.95981
5233,53.0,52.955345
5234,53.0,52.950386
5235,53.0,52.944874
5236,53.0,52.93875
5237,52.0,52.93195
5238,54.0,53.0355
5239,53.0,52.928333
5240,53.0,52.920372
5241,54.0,52.911526
5242,53.0,52.790585
5243,55.0,52.76732
5244,48.0,52.519245
5245,53.0,53.021385
5246,54.0,53.02376
5247,53.0,52.91529
5248,58.0,52.90588
5249,52.0,52.33987
5250,48.0,52.377636
5251,53.0,52.864044
5252,53.0,52.84894
5253,55.0,52.83216
5254,49.0,52.591293
5255,53.0,52.990326
5256,53.0,52.989254
5257,53.0,52.988064
5258,53.0,52.98674
5259,53.0,52.985268
5260,52.0,52.983635
5261,53.0,53.09293
5262,53.0,53.103256
5263,53.0,53.11473
5264,53.0,53.12748
5265,53.0,53.12748
5266,53.0,53.141647
5267,53.0,53.157387
5268,54.0,53.174877
5269,57.0,53.083195
5270,59.0,52.647995
5271,50.0,51.942215
5272,51.0,52.158016
5273,48.0,52.286686
5274,53.0,52.762985
5275,52.0,52.736652
5276,52.0,52.818504
5277,52.0,52.90945
5278,53.0,53.0105
5279,57.0,53.011673
5280,51.0,52.568527
5281,49.0,52.742813
5282,53.0,53.15868
5283,53.0,53.17631
5284,54.0,53.195904
5285,53.0,53.10656
5286,57.0,53.1184
5287,50.0,52.68711
5288,53.0,52.98568
5289,52.0,52.98409
5290,53.0,53.093433
5291,53.0,53.103817
5292,53.0,53.115353
5293,53.0,53.12817
5294,53.0,53.142414
5295,54.0,53.15824
5296,54.0,53.15824
5297,53.0,53.064713
5298,53.0,53.071907
5299,53.0,53.0799
5300,53.0,53.08878
5301,53.0,53.098648
5302,54.0,53.10961
5303,54.0,53.01068
5304,52.0,52.900757
5305,53.0,53.000843
5306,54.0,53.00094
5307,53.0,52.88993
5308,54.0,52.877705
5309,52.0,52.753006
5310,57.0,52.836674
5311,52.0,52.374084
5312,48.0,52.41565
5313,53.0,52.90628
5314,54.0,52.89587
5315,57.0,52.77319
5316,53.0,52.303543
5317,52.0,52.226162
5318,48.0,52.251293
5319,53.0,52.723663
5320,52.0,52.692963
5321,52.0,52.76996
5322,53.0,52.85551
5323,53.0,52.83946
5324,55.0,52.821625
5325,51.0,52.579586
5326,53.0,52.7551
5327,52.0,52.72789
5328,53.0,52.80877
5329,53.0,52.787525
5330,53.0,52.76392
5331,53.0,52.73769
5332,53.0,52.708546
5333,53.0,52.676163
5334,52.0,52.640182
5335,53.0,52.711315
5336,55.0,52.67924
5337,48.0,52.42138
5338,53.0,52.912647
5339,53.0,52.902943
5340,61.0,52.892162
5341,48.0,51.991295
5342,48.0,52.434776
5343,53.0,52.927532
5344,53.0,52.919483
5345,53.0,52.910538
5346,52.0,52.9006
5347,53.0,53.000668
5348,53.0,53.000744
5349,53.0,53.000828
5350,53.0,53.000923
5351,53.0,53.00103
5352,57.0,53.00115
5353,48.0,52.55683
5354,53.0,53.06315
5355,53.0,53.070168
5356,57.0,53.077965
5357,48.0,52.642185
5358,53.0,53.157986
5359,55.0,53.17554
5360,57.0,52.972824
5361,53.0,52.52536
5362,50.0,52.472626
5363,49.0,52.747364
5364,53.0,53.16374
5365,54.0,53.181934
5366,53.0,53.091038
5367,54.0,53.101154
5368,55.0,53.00128
5369,52.0,52.779205
5370,57.0,52.865784
5371,52.0,52.406425
5372,52.0,52.451584
5373,48.0,52.501762
5374,53.0,53.00196
5375,53.0,53.002182
5376,53.0,53.002426
5377,53.0,53.002697
5378,54.0,53.003
5379,54.0,52.89222
5380,53.0,52.76913
5381,53.0,52.74348
5382,53.0,52.71498
5383,53.0,52.683315
5384,53.0,52.648132
5385,51.0,52.60904
5386,54.0,52.787823
5387,53.0,52.653137
5388,55.0,52.614597
5389,48.0,52.349556
5390,53.0,52.832844
5391,52.0,52.814274
5392,53.0,52.90475
5393,53.0,52.89417
5394,53.0,52.882412
5395,53.0,52.86935
5396,53.0,52.854836
5397,53.0,52.838707
5398,53.0,52.82079
5399,54.0,52.80088
5400,57.0,52.667645
5401,51.0,52.18627
5402,48.0,52.318085
5403,55.0,52.797874
5404,54.0,52.553196
5405,52.0,52.39244
5406,51.0,52.436047
5407,49.0,52.59561
5408,53.0,52.995125
5409,53.0,52.994587
5410,53.0,52.993988
5411,53.0,52.99332
5412,53.0,52.99258
5413,53.0,52.991756
5414,53.0,52.99084
5415,53.0,52.989826
5416,53.0,52.988697
5417,57.0,52.987442
5418,48.0,52.541603
5419,53.0,53.046227
5420,51.0,53.051365
5421,54.0,53.279297
5422,53.0,53.19922
5423,54.0,53.221355
5424,53.0,53.13484
5425,53.0,53.149822
5426,53.0,53.166473
5427,54.0,53.184975
5428,53.0,53.094418
5429,53.0,53.10491
5430,55.0,53.11657
5431,52.0,52.9073
5432,52.0,53.00811
5433,58.0,53.120125
5434,48.0,52.57792
5435,53.0,53.08658
5436,52.0,53.0962
5437,54.0,53.218
5438,53.0,53.131107
5439,54.0,53.145676
5440,53.0,53.05075
5441,53.0,53.056393
5442,54.0,53.06266
5443,53.0,52.95851
5444,53.0,52.953903
5445,53.0,52.948784
5446,53.0,52.943096
5447,53.0,52.936775
5448,57.0,52.929752
5449,55.0,52.477505
5450,51.0,52.197227
5451,49.0,52.330257
5452,52.0,52.700287
5453,53.0,52.778095
5454,53.0,52.75344
5455,53.0,52.726048
5456,53.0,52.69561
5457,52.0,52.661793
5458,53.0,52.735325
5459,53.0,52.705917
5460,55.0,52.673244
5461,51.0,52.41472
5462,49.0,52.57191
5463,53.0,52.96879
5464,53.0,52.965324
5465,53.0,52.961475
5466,52.0,52.957195
5467,57.0,53.063553
5468,51.0,52.62617
5469,53.0,52.80686
5470,52.0,52.785404
5471,53.0,52.872673
5472,53.0,52.85853
5473,53.0,52.84281
5474,53.0,52.825348
5475,53.0,52.805943
5476,52.0,52.78438
5477,53.0,52.871536
5478,54.0,52.857265
5479,53.0,52.730293
5480,53.0,52.70033
5481,53.0,52.667034
5482,53.0,52.63004
5483,53.0,52.588936
5484,48.0,52.543262
5485,53.0,53.048073
5486,53.0,53.053417
5487,53.0,53.059357
5488,53.0,53.065956
5489,54.0,53.073288
5490,55.0,52.97032
5491,52.0,52.744804
5492,56.0,52.82756
5493,55.0,52.47507
5494,52.0,52.194523
5495,51.0,52.216137
5496,48.0,52.351265
5497,53.0,52.83474
5498,57.0,52.81638
5499,52.0,52.351532
5500,48.0,52.39059
5501,53.0,52.878437
5502,53.0,52.864933
5503,53.0,52.84993
5504,52.0,52.833256
5505,53.0,52.92584
5506,53.0,52.9176
5507,53.0,52.908443
5508,53.0,52.898273
5509,53.0,52.886974
5510,53.0,52.874416
5511,53.0,52.860466
5512,53.0,52.844963
5513,53.0,52.82774
5514,58.0,52.8086
5515,51.0,52.23178
5516,48.0,52.36865
5517,53.0,52.854057
5518,53.0,52.837845
5519,54.0,52.81983
5520,55.0,52.6887
5521,51.0,52.431892
5522,52.0,52.590996
5523,53.0,52.656662
5524,53.0,52.618515
5525,52.0,52.57613
5526,53.0,52.640144
5527,53.0,52.600163
5528,53.0,52.555737
5529,53.0,52.506374
5530,54.0,52.45153
5531,51.0,52.279476
5532,49.0,52.421642
5533,53.0,52.801826
5534,53.0,52.779808
5535,53.0,52.755344
5536,53.0,52.72816
5537,57.0,52.69796
5538,52.0,52.219955
5539,51.0,52.244396
5540,48.0,52.382664
5541,53.0,52.86963
5542,53.0,52.855145
5543,54.0,52.83905
5544,53.0,52.710056
5545,53.0,52.67784
5546,53.0,52.642048
5547,51.0,52.60228
5548,52.0,52.780315
5549,55.0,52.86702
5550,53.0,52.630024
5551,51.0,52.588917
5552,54.0,52.765465
5553,53.0,52.628296
5554,53.0,52.586998
5555,53.0,52.54111
5556,53.0,52.490128
5557,52.0,52.43348
5558,52.0,52.481644
5559,53.0,52.53516
5560,52.0,52.483513
5561,53.0,52.537235
5562,53.0,52.48582
5563,54.0,52.42869
5564,48.0,52.2541
5565,53.0,52.72678
5566,53.0,52.696423
5567,52.0,52.662693
5568,53.0,52.73633
5569,53.0,52.707035
5570,53.0,52.674484
5571,53.0,52.638317
5572,53.0,52.598133
5573,52.0,52.553482
5574,53.0,52.61498
5575,53.0,52.5722
5576,53.0,52.52467
5577,53.0,52.47186
5578,55.0,52.413177
5579,51.0,52.125755
5580,49.0,52.250843
5581,54.0,52.61205
5582,54.0,52.457832
5583,52.0,52.28648
5584,49.0,52.31831
5585,49.0,52.68701
5586,53.0,53.09668
5587,53.0,53.107426
5588,53.0,53.119366
5589,53.0,53.13263
5590,53.0,53.14737
5591,53.0,53.163746
5592,53.0,53.181942
5593,53.0,53.20216
5594,58.0,53.224625
5595,52.0,52.69403
5596,52.0,52.69403
5597,51.0,52.771145
5598,53.0,52.96794
5599,53.0,52.964382
5600,53.0,52.960426
5601,53.0,52.95603
5602,53.0,52.95115
5603,53.0,52.945724
5604,53.0,52.939697
5605,52.0,52.933
5606,53.0,53.036667
5607,53.0,53.040745
5608,53.0,53.045273
5609,53.0,53.050304
5610,57.0,53.055897
5611,55.0,52.617664
5612,47.0,52.352962
5613,52.0,52.947735
5614,53.0,53.05304
5615,53.0,53.058933
5616,52.0,53.065483
5617,53.0,53.183872
5618,53.0,53.204304
5619,54.0,53.227005
5620,53.0,53.141117
5621,53.0,53.1568
5622,54.0,53.174225
5623,54.0,53.08247
5624,53.0,52.980522
5625,53.0,52.97836
5626,57.0,52.975956
5627,58.0,52.52884
5628,49.0,51.920937
5629,50.0,52.245483
5630,48.0,52.494984
5631,53.0,52.99443
5632,53.0,52.993813
5633,53.0,52.993126
5634,53.0,52.992363
5635,53.0,52.991516
5636,53.0,52.990578
5637,53.0,52.989532
5638,53.0,52.988373
5639,54.0,52.987083
5640,57.0,52.87454
5641,53.0,52.416153
5642,48.0,52.351284
5643,57.0,52.834763
5644,48.0,52.37196
5645,57.0,52.857735
5646,48.0,52.397484
5647,53.0,52.886097
5648,53.0,52.873444
5649,53.0,52.859383
5650,53.0,52.84376
5651,53.0,52.826405
5652,53.0,52.807117
5653,53.0,52.78569
5654,53.0,52.76188
5655,53.0,52.735424
5656,53.0,52.706028
5657,53.0,52.673367
5658,53.0,52.637077
5659,52.0,52.596756
5660,52.0,52.663063
5661,57.0,52.736736
5662,47.0,52.263042
5663,53.0,52.847824
5664,53.0,52.830917
5665,53.0,52.812134
5666,53.0,52.791264
5667,53.0,52.768074
5668,53.0,52.742306
5669,54.0,52.713676
5670,57.0,52.57075
5671,54.0,52.078613
5672,49.0,51.865124
5673,51.0,52.18347
5674,48.0,52.314972
5675,52.0,52.794415
5676,53.0,52.882683
5677,54.0,52.869648
5678,51.0,52.744053
5679,53.0,52.93784
5680,53.0,52.930935
5681,53.0,52.923264
5682,53.0,52.914738
5683,53.0,52.905266
5684,52.0,52.89474
5685,53.0,52.994156
5686,53.0,52.993507
5687,53.0,52.992786
5688,53.0,52.99199
5689,53.0,52.9911
5690,53.0,52.990112
5691,53.0,52.989017
5692,54.0,52.9878
5693,53.0,52.875336
5694,53.0,52.86149
5695,52.0,52.8461
5696,53.0,52.940113
5697,53.0,52.93346
5698,53.0,52.92607
5699,53.0,52.91786
5700,57.0,52.908733
5701,53.0,52.454147
5702,48.0,52.3935
5703,53.0,52.88167
5704,53.0,52.868526
5705,53.0,52.85392
5706,54.0,52.837692
5707,52.0,52.708546
5708,53.0,52.787273
5709,53.0,52.763638
5710,55.0,52.737377
5711,48.0,52.485977
5712,53.0,52.98442
5713,53.0,52.982693
5714,53.0,52.98077
5715,57.0,52.978634
5716,55.0,52.531815
5717,51.0,52.257572
5718,48.0,52.397305
5719,49.0,52.885895
5720,53.0,53.31766
5721,54.0,53.35296
5722,56.0,53.281063
5723,52.0,52.978962
5724,53.0,53.087738
5725,53.0,53.09749
5726,58.0,53.108322
5727,48.0,52.564804
5728,53.0,53.072006
5729,53.0,53.08001
5730,57.0,53.0889
5731,53.0,52.654335
5732,48.0,52.61593
5733,53.0,53.12881
5734,53.0,53.143127
5735,53.0,53.15903
5736,53.0,53.176704
5737,53.0,53.196342
5738,57.0,53.21816
5739,48.0,52.797955
5740,53.0,53.331062
5741,54.0,53.367847
5742,58.0,53.297607
5743,51.0,52.775124
5744,54.0,52.972363
5745,53.0,52.85818
5746,53.0,52.842426
5747,52.0,52.82492
5748,53.0,52.91658
5749,53.0,52.907314
5750,53.0,52.89702
5751,53.0,52.88558
5752,54.0,52.872868
5753,53.0,52.74763
5754,57.0,52.719593
5755,48.0,52.24399
5756,53.0,52.71555
5757,53.0,52.683945
5758,54.0,52.64883
5759,53.0,52.4987
5760,59.0,52.443
5761,51.0,51.714447
5762,48.0,51.793835
5763,48.0,52.215374
5764,52.0,52.68375
5765,53.0,52.759724
5766,53.0,52.73303
5767,53.0,52.703365
5768,53.0,52.67041
5769,53.0,52.633793
5770,55.0,52.593105
5771,49.0,52.325676
5772,53.0,52.695194
5773,53.0,52.66133
5774,53.0,52.623703
5775,53.0,52.581894
5776,49.0,52.53544
5777,53.0,52.928265
5778,53.0,52.920296
5779,53.0,52.91144
5780,53.0,52.901604
5781,53.0,52.890675
5782,53.0,52.87853
5783,53.0,52.865036
5784,53.0,52.85004
5785,53.0,52.83338
5786,55.0,52.81487
5787,49.0,52.57208
5788,53.0,52.968975
5789,53.0,52.96553
5790,55.0,52.961704
5791,55.0,52.73523
5792,48.0,52.48359
5793,53.0,52.98177
5794,54.0,52.979748
5795,53.0,52.866386
5796,53.0,52.851543
5797,52.0,52.83505
5798,53.0,52.927834
5799,53.0,52.91982
5800,54.0,52.91091
5801,52.0,52.7899
5802,52.0,52.87767
5803,52.0,52.97519
5804,57.0,53.083546
5805,55.0,52.648384
5806,52.0,52.387096
5807,53.0,52.430107
5808,48.0,52.366787
5809,53.0,52.85199
5810,53.0,52.835545
5811,53.0,52.817272
5812,53.0,52.79697
5813,52.0,52.774414
5814,53.0,52.860462
5815,53.0,52.84496
5816,52.0,52.827736
5817,53.0,52.91971
5818,53.0,52.91079
5819,54.0,52.90088
5820,55.0,52.778755
5821,51.0,52.53195
5822,49.0,52.70217
5823,58.0,53.113525
5824,51.0,52.570587
5825,52.0,52.7451
5826,53.0,52.82789
5827,53.0,52.80877
5828,52.0,52.787525
5829,53.0,52.87503
5830,53.0,52.86115
5831,53.0,52.845722
5832,53.0,52.828583
5833,53.0,52.80954
5834,52.0,52.78838
5835,53.0,52.875977
5836,53.0,52.862198
5837,53.0,52.84689
5838,53.0,52.82988
5839,53.0,52.810978
5840,53.0,52.789978
5841,53.0,52.766644
5842,53.0,52.74072
5843,53.0,52.711914
5844,52.0,52.679905
5845,53.0,52.75545
5846,53.0,52.728283
5847,53.0,52.698093
5848,56.0,52.66455
5849,60.0,52.29395
5850,48.0,51.43772
5851,49.0,51.819695
5852,48.0,52.132996
5853,53.0,52.59222
5854,53.0,52.546913
5855,53.0,52.49657
5856,53.0,52.440636
5857,48.0,52.378487
5858,53.0,52.864986
5859,53.0,52.849987
5860,53.0,52.83332
5861,52.0,52.814804
5862,53.0,52.90534
5863,52.0,52.89482
5864,54.0,52.994247
5865,55.0,52.882496
5866,49.0,52.64722
5867,53.0,53.052467
5868,53.0,53.0583
5869,53.0,53.06478
5870,53.0,53.071983
5871,54.0,53.079983
5872,57.0,52.97776
5873,48.0,52.530846
5874,53.0,53.034275
5875,53.0,53.038086
5876,53.0,53.04232
5877,53.0,53.047024
5878,53.0,53.05225
5879,55.0,53.05806
5880,55.0,52.84229
5881,53.0,52.602547
5882,48.0,52.558388
5883,53.0,53.064877
5884,53.0,53.072086
5885,53.0,53.080097
5886,53.0,53.089
5887,53.0,53.098892
5888,57.0,53.109882
5889,51.0,52.677647
5890,53.0,52.864056
5891,52.0,52.848953
5892,54.0,52.943283
5893,57.0,52.82587
5894,53.0,52.36208
5895,52.0,52.291203
5896,48.0,52.32356
5897,56.0,52.803955
5898,48.0,52.44884
5899,54.0,52.94316
5900,53.0,52.825733
5901,53.0,52.806374
5902,53.0,52.784863
5903,53.0,52.76096
5904,53.0,52.7344
5905,53.0,52.70489
5906,53.0,52.70489
5907,53.0,52.672104
5908,52.0,52.635674
5909,53.0,52.706306
5910,55.0,52.673676
5911,53.0,52.415195
5912,50.0,52.35022
5913,52.0,52.61136
5914,53.0,52.679287
5915,50.0,52.643654
5916,53.0,52.937393
5917,54.0,52.93044
5918,52.0,52.8116
5919,53.0,52.90178
5920,53.0,52.89087
5921,53.0,52.878746
5922,55.0,52.865276
5923,52.0,52.628086
5924,52.0,52.697872
5925,53.0,52.775414
5926,53.0,52.75046
5927,53.0,52.722736
5928,53.0,52.691933
5929,53.0,52.657703
5930,52.0,52.61967
5931,52.0,52.688522
5932,52.0,52.688522
5933,53.0,52.765026
5934,53.0,52.73892
5935,53.0,52.70991
5936,53.0,52.67768
5937,53.0,52.64187
5938,54.0,52.602077
5939,55.0,52.446754
5940,51.0,52.163063
5941,56.0,52.292297
5942,49.0,51.880333
5943,48.0,52.20037
5944,52.0,52.66708
5945,54.0,52.7412
5946,53.0,52.601334
5947,52.0,52.55704
5948,52.0,52.618935
5949,53.0,52.687706
5950,52.0,52.653008
5951,53.0,52.725563
5952,53.0,52.695072
5953,53.0,52.661194
5954,53.0,52.62355
5955,57.0,52.581726
5956,48.0,52.09081
5957,52.0,52.545345
5958,52.0,52.605938
5959,52.0,52.673264
5960,52.0,52.74807
5961,53.0,52.83119
5962,53.0,52.812435
5963,52.0,52.791595
5964,53.0,52.87955
5965,53.0,52.86617
5966,53.0,52.851303
5967,53.0,52.83478
5968,52.0,52.816425
5969,53.0,52.90714
5970,53.0,52.896824
5971,57.0,52.88536
5972,50.0,52.42818
5973,51.0,52.69798
5974,52.0,52.886646
5975,53.0,52.985165
5976,53.0,52.983517
5977,53.0,52.98169
5978,54.0,52.979656
5979,52.0,52.866283
5980,53.0,52.962536
5981,53.0,52.958374
5982,53.0,52.95375
5983,54.0,52.948616
5984,57.0,52.831795
5985,53.0,52.36866
5986,52.0,52.298515
5987,48.0,52.331684
5988,52.0,52.812984
5989,53.0,52.903316
5990,53.0,52.892574
5991,53.0,52.880642
5992,53.0,52.867382
5993,53.0,52.85265
5994,57.0,52.83628
5995,48.0,52.373646
5996,54.0,52.859608
5997,53.0,52.7329
5998,54.0,52.703224
5999,53.0,52.55914
6000,53.0,52.51016
6001,57.0,52.455734
6002,52.0,51.950817
6003,47.0,51.945354
6004,54.0,52.49484
6005,49.0,52.3276
6006,53.0,52.69733
6007,52.0,52.663704
6008,53.0,52.73745
6009,52.0,52.70828
6010,57.0,52.786976
6011,49.0,52.318863
6012,53.0,52.687626
6013,52.0,52.65292
6014,53.0,52.725468
6015,53.0,52.694965
6016,52.0,52.661076
6017,54.0,52.734528
6018,52.0,52.593918
6019,53.0,52.65991
6020,55.0,52.622124
6021,48.0,52.357918
6022,53.0,52.842133
6023,53.0,52.824593
6024,52.0,52.805103
6025,54.0,52.89456
6026,55.0,52.771736
6027,48.0,52.52415
6028,57.0,53.026836
6029,55.0,52.585373
6030,52.0,52.31708
6031,52.0,52.352314
6032,50.0,52.39146
6033,49.0,52.65718
6034,53.0,53.063534
6035,52.0,53.070595
6036,57.0,53.18955
6037,52.0,52.766167
6038,53.0,52.851295
6039,53.0,52.834774
6040,53.0,52.816418
6041,52.0,52.79602
6042,55.0,52.884468
6043,49.0,52.64941
6044,53.0,53.0549
6045,53.0,53.061005
6046,53.0,53.067783
6047,53.0,53.075317
6048,53.0,53.083687
6049,53.0,53.092987
6050,53.0,53.10332
6051,53.0,53.114803
6052,55.0,53.127563
6053,52.0,52.919518
6054,53.0,53.021687
6055,53.0,53.024097
6056,53.0,53.02678
6057,53.0,53.02976
6058,55.0,53.033066
6059,52.0,52.814518
6060,53.0,52.90502
6061,57.0,52.89447
6062,52.0,52.4383
6063,48.0,52.487003
6064,53.0,52.98556
6065,53.0,52.98396
6066,53.0,52.982178
6067,53.0,52.9802
6068,53.0,52.978004
6069,53.0,52.975563
6070,53.0,52.97285
6071,53.0,52.969837
6072,55.0,52.966488
6073,57.0,52.740543
6074,52.0,52.267273
6075,50.0,52.29697
6076,49.0,52.55219
6077,54.0,52.946877
6078,52.0,52.82986
6079,53.0,52.92207
6080,53.0,52.913414
6081,53.0,52.903797
6082,53.0,52.89311
6083,54.0,52.881233
6084,53.0,52.756924
6085,55.0,52.729916
6086,48.0,52.477684
6087,54.0,52.97521
6088,53.0,52.861343
6089,53.0,52.84594
6090,53.0,52.828823
6091,57.0,52.809807
6092,52.0,52.34423
6093,48.0,52.38248
6094,53.0,52.869427
6095,53.0,52.85492
6096,52.0,52.838802
6097,53.0,52.932003
6098,53.0,52.92445
6099,52.0,52.916058
6100,53.0,53.01784
6101,57.0,53.019825
6102,48.0,52.577583
6103,53.0,53.086205
6104,53.0,53.095783
6105,54.0,53.106426
6106,52.0,53.00714
6107,53.0,53.119045
6108,53.0,53.132275
6109,53.0,53.146973
6110,53.0,53.163307
6111,53.0,53.181454
6112,53.0,53.20162
6113,53.0,53.224022
6114,53.0,53.248917
6115,53.0,53.276577
6116,55.0,53.307312
6117,61.0,53.119236
6118,51.0,52.2436
6119,51.0,52.38178
6120,49.0,52.535313
6121,58.0,52.928123
6122,51.0,52.364582
6123,48.0,52.516205
6124,53.0,53.01801
6125,53.0,53.02001
6126,53.0,53.02224
6127,53.0,53.02471
6128,53.0,53.02746
6129,53.0,53.03051
6130,53.0,53.0339
6131,53.0,53.03767
6132,53.0,53.04186
6133,54.0,53.046513
6134,52.0,52.94057
6135,54.0,53.04508
6136,53.0,52.938976
6137,57.0,52.932198
6138,48.0,52.48022
6139,53.0,52.978024
6140,53.0,52.975586
6141,53.0,52.972878
6142,53.0,52.969868
6143,53.0,52.966522
6144,53.0,52.962803
6145,53.0,52.95867
6146,53.0,52.954082
6147,53.0,52.948982
6148,53.0,52.943317
6149,53.0,52.937023
6150,53.0,52.930027
6151,56.0,52.922253
6152,53.0,52.580284
6153,53.0,52.53365
6154,48.0,52.481834
6155,53.0,52.97982
6156,53.0,52.97758
6157,53.0,52.975094
6158,52.0,52.97233
6159,53.0,53.080364
6160,54.0,53.089294
6161,58.0,52.988106
6162,55.0,52.431232
6163,53.0,52.145817
6164,48.0,52.05091
6165,52.0,52.501015
6166,55.0,52.556683
6167,49.0,52.285206
6168,53.0,52.65023
6169,55.0,52.61137
6170,48.0,52.34597
6171,53.0,52.828857
6172,53.0,52.809845
6173,53.0,52.78872
6174,53.0,52.765247
6175,52.0,52.739166
6176,52.0,52.821297
6177,53.0,52.91255
6178,53.0,52.902836
6179,53.0,52.892044
6180,54.0,52.88005
6181,57.0,52.75561
6182,55.0,52.28401
6183,45.0,51.982235
6184,53.0,52.75804
