no,raw,smooth
0,237.56657,158.87875
1,227.70111,150.13567
2,217.76942,141.51729
3,207.7903,133.04483
4,197.79172,124.73978
5,187.79863,116.622894
6,177.83606,108.714485
7,167.93192,101.03431
8,158.10489,93.60125
9,148.38258,86.43418
10,138.78932,79.551025
11,129.34906,72.969
12,120.088234,66.70455
13,111.0243,60.773033
14,102.182785,55.18956
15,93.58579,49.968094
16,85.254814,45.121685
17,77.21307,40.66245
18,69.475784,36.601273
19,62.064774,32.948547
20,54.99858,29.713411
21,48.29486,26.903948
22,41.972214,24.52718
23,36.04265,22.588842
24,30.522919,21.093975
25,25.42685,20.046314
26,20.767181,19.448479
27,16.556763,19.301958
28,12.803574,19.606981
29,9.518326,20.362915
30,6.709244,21.567871
31,4.3833313,23.21883
32,2.546936,25.311663
33,1.2034607,27.841078
34,0.3569641,30.800814
35,0.009506226,34.183464
36,0.1619873,37.98057
37,0.8137512,42.18264
38,1.963562,46.779182
39,3.608429,51.758698
40,5.744217,57.108727
41,8.365601,62.815895
42,11.465027,68.86593
43,15.036621,75.24381
44,19.070572,81.9335
45,23.556824,88.918274
46,28.48413,96.18066
47,33.838486,103.7025
48,39.609787,111.46517
49,45.782043,119.44911
50,52.339798,127.634346
51,59.266663,136.00041
52,66.54306,144.52638
53,74.15526,153.1912
54,82.08202,161.97296
55,90.303566,170.84973
56,98.799324,179.79932
57,107.54535,188.79933
58,116.52513,197.82756
59,125.71358,206.86118
60,135.08774,215.8776
61,144.62415,224.85425
62,154.29602,233.7687
63,164.08508,242.59901
64,173.96391,251.32278
65,183.90782,259.9182
66,193.89197,268.3638
67,203.88834,276.63846
68,213.87804,284.72183
69,223.83304,292.59335
70,233.72845,300.2334
71,243.53957,307.62286
72,253.23889,314.74326
73,262.8081,321.5771
74,272.22034,328.10696
75,281.45203,334.3166
76,290.48007,340.19043
77,299.27933,345.7138
78,307.8331,350.87323
79,316.1173,355.65546
80,324.11127,360.0486
81,331.79498,364.04166
82,339.14703,367.62463
83,346.15356,370.78882
84,352.7947,373.5261
85,359.0539,375.8296
86,364.91553,377.69354
87,370.36328,379.11334
88,375.38687,380.0856
89,379.97205,380.60767
90,384.10736,380.6783
91,387.7824,380.29733
92,390.98712,379.46567
93,393.71548,378.1855
94,395.9596,376.45993
95,397.71387,374.29333
96,398.97388,371.69107
97,399.73633,368.65964
98,399.99982,365.2067
99,399.76334,361.34082
100,399.0275,357.07166
101,397.79413,352.4099
102,396.0669,347.36722
103,393.84912,341.95615
104,391.14676,336.19028
105,387.96655,330.084
106,384.3165,323.65262
107,380.20697,316.9122
108,375.6458,309.87946
109,370.6456,302.57208
110,365.21878,295.00836
111,359.37897,287.2072
112,353.1427,279.18814
113,346.52173,270.97098
114,339.53452,262.57645
115,332.1985,254.02556
116,324.53198,245.33968
117,316.5567,236.54053
118,308.28763,227.64984
119,299.74786,218.6901
120,290.95874,209.68367
121,281.94226,200.65312
122,272.72375,191.621
123,263.3207,182.6096
124,253.75937,173.6417
125,244.06363,164.73975
126,234.25774,155.926
127,224.36925,147.22246
128,214.41682,138.6506
129,204.42836,130.23213
130,194.42883,121.988106
131,184.44324,113.93913
132,174.49954,106.10535
133,164.61656,98.50599
134,154.82204,91.16038
135,145.14044,84.08687
136,135.59598,77.30314
137,126.215355,70.82616
138,117.01629,64.67181
139,108.02466,58.85576
140,99.26294,53.392548
141,90.75305,48.295837
142,82.51873,43.57837
143,74.57553,39.251663
144,66.94585,35.32679
145,59.64879,31.81356
146,52.702576,28.720757
147,46.126526,26.05611
148,39.933044,23.826065
149,34.13971,22.0364
150,28.760986,20.691587
151,23.810333,19.794989
152,19.301422,19.34884
153,15.242767,19.35411
154,11.645966,19.810926
155,8.52002,20.718145
156,5.872711,22.073494
157,3.7112885,23.873583
158,2.039795,26.11384
159,0.8631592,28.788734
160,0.18432617,31.891579
161,0.004989624,35.414608
162,0.3254242,39.34901
163,1.1450348,43.684963
164,2.4617157,48.411625
165,4.272217,53.517174
166,6.571991,58.988834
167,9.35437,64.81293
168,12.61409,70.97499
169,16.34224,77.45954
170,20.52951,84.25036
171,25.165405,91.33046
172,30.23674,98.68214
173,35.733917,106.287186
174,41.641724,114.126434
175,47.945404,122.1803
176,54.62918,130.42862
177,61.67415,138.85078
178,69.067,147.42596
179,76.78716,156.13252
180,84.81532,164.94868
181,93.131424,173.85239
182,101.712006,182.8214
183,110.54087,191.83356
184,119.59336,200.86607
185,128.84686,209.89638
186,138.27823,218.90189
187,147.86093,227.86008
188,157.57687,236.74889
189,167.39886,245.54578
190,177.30237,254.22878
191,187.26259,262.77615
192,197.2516,271.16656
193,207.25055,279.37933
194,217.23135,287.39365
195,227.16908,295.18945
196,237.03891,302.74728
197,246.81317,310.04822
198,256.4734,317.07437
199,265.9925,323.80783
200,275.34656,330.23178
201,284.51233,336.33014
202,293.4641,342.08768
203,302.18503,347.4903
204,310.6505,352.52423
205,318.83936,357.17685
206,326.73117,361.43658
207,334.3039,365.29276
208,341.54327,368.73596
209,348.42883,371.7574
210,354.94333,374.34943
211,361.0705,376.50568
212,366.79333,378.2207
213,372.10107,379.49045
214,376.97855,380.3115
215,381.41364,380.68185
216,385.39523,380.60056
217,388.91235,380.0678
218,391.95844,379.08508
219,394.5246,377.65472
220,396.60455,375.7803
221,398.193,373.4665
222,399.28577,370.71912
223,399.88074,367.54504
224,399.97607,363.9522
225,399.57153,359.94955
226,398.66806,355.54712
227,397.2685,350.75592
228,395.37543,345.5879
229,392.99402,340.05597
230,390.1301,334.17398
231,386.79092,327.95667
232,382.98602,321.41956
233,378.72266,314.57883
234,374.01248,307.45175
235,368.8673,300.05612
236,363.30005,292.41046
237,357.32642,284.53384
238,350.95776,276.44577
239,344.21173,268.1667
240,337.1052,259.71722
241,329.65594,251.11858
242,321.88498,242.39221
243,313.807,233.55968
244,305.44458,224.64331
245,296.81854,215.66539
246,287.95044,206.64838
247,278.86536,197.61482
248,269.58032,188.58699
249,260.12137,179.58772
250,250.51215,170.63956
251,240.77664,161.76483
252,230.94223,152.98575
253,221.02747,144.32393
254,211.06015,135.80132
255,201.06517,127.439224
256,191.06754,119.25856
257,181.09528,111.279785
258,171.16722,103.522514
259,161.31123,96.00644
260,151.55197,88.75035
261,141.91382,81.77239
262,132.42374,75.09001
263,123.099655,68.719604
264,113.96781,62.67738
265,105.051025,56.978443
266,96.371605,51.637043
267,87.95374,46.666534
268,79.81337,42.079067
269,71.97345,37.886368
270,64.45355,34.098915
271,57.272507,30.72618
272,50.45027,27.776588
273,43.999725,25.257292
274,37.939148,23.174799
275,32.283707,21.534317
276,27.0475,20.339941
277,22.245056,19.594658
278,17.885406,19.300169
279,13.981018,19.457367
280,10.541641,20.065851
281,7.5758514,21.124096
282,5.0917816,22.629456
283,3.0941162,24.578087
284,1.5886536,26.965195
285,0.57917786,29.784811
286,0.06820679,33.02988
287,0.05697632,36.69229
288,0.54545593,40.762882
289,1.5325317,45.231483
290,3.015747,50.086926
291,4.9913635,55.31706
292,7.453644,60.908802
293,10.397919,66.84827
294,13.816162,73.12053
295,17.69983,79.70991
296,22.0392,86.59992
297,26.821915,93.77334
298,32.038925,101.21239
299,37.675797,108.89832
300,43.71846,116.81194
301,50.15178,124.93344
302,56.95755,133.24252
303,64.122925,141.71863
304,71.627975,150.34038
305,79.45391,159.08621
306,87.58119,167.93425
307,95.98689,176.86237
308,104.65512,185.84853
309,113.56169,194.87001
310,122.68434,203.90427
311,132.00026,212.92871
312,141.48325,221.92076
313,151.11539,230.85826
314,160.86972,239.71858
315,170.7219,248.47957
316,180.64723,257.11932
317,190.6179,265.61624
318,200.61507,273.9494
319,210.6107,282.0977
320,220.5798,290.0407
321,230.49747,297.7586
322,240.33589,305.2321
323,250.0765,312.44278
324,259.69196,319.37238
325,269.15814,326.00354
326,278.4515,332.3197
327,287.546,338.30505
328,296.42444,343.94495
329,305.06183,349.225
330,313.43658,354.13202
331,321.52783,358.65375
332,329.3129,362.77887
333,336.77716,366.4973
334,343.89948,369.7996
335,350.6621,372.6774
336,357.0481,375.12354
337,363.03973,377.13193
338,368.62573,378.69772
339,373.79016,379.81683
340,378.52017,380.48645
341,382.80392,380.70493
342,386.62958,380.4717
343,389.99,379.7875
344,392.87543,378.6539
345,395.27872,377.07373
346,397.19385,375.05096
347,398.61572,372.59064
348,399.54156,369.69897
349,399.96863,366.38315
350,399.89578,362.65143
351,399.32324,358.51318
352,398.25287,353.97876
353,396.68665,349.05942
354,394.62872,343.76752
355,392.0843,338.1163
356,389.0597,332.11987
357,385.5636,325.7932
358,381.60266,319.15207
359,377.18774,312.2131
360,372.32993,304.9937
361,367.04132,297.5119
362,361.3369,289.7864
363,355.22754,281.83636
364,348.7301,273.6818
365,341.8609,265.3431
366,334.6371,256.84116
367,327.07904,248.19717
368,319.2011,239.43253
369,311.02518,230.56937
370,302.5717,221.62984
371,293.86182,212.6363
372,284.92004,203.61125
373,275.76334,194.57695
374,266.4172,185.55624
375,256.90506,176.5717
376,247.25066,167.64578
377,237.48114,158.8008
378,227.61496,150.05855
379,217.67975,141.44118
380,207.70033,132.97023
381,197.70168,124.666885
382,187.71182,116.55191
383,177.74962,108.64525
384,167.84303,100.96699
385,158.01685,93.53632
386,148.29561,86.371826
387,138.70651,79.49141
388,129.2677,72.91196
389,120.0057,66.65021
390,110.94367,60.721825
391,102.104256,55.14162
392,93.51215,49.92355
393,85.18357,45.08037
394,77.14202,40.624462
395,69.40758,36.566956
396,61.999588,32.918
397,54.93869,29.68671
398,48.23819,26.880936
399,41.917053,24.50791
400,35.99109,22.57356
401,30.475128,21.082724
402,25.38443,20.039124
403,20.728607,19.445202
404,16.52092,19.302603
405,12.771896,19.61168
406,9.4908905,20.371656
407,6.68692,21.580631
408,4.3652344,23.235489
409,2.5326233,25.332184
410,1.1936188,27.86547
411,0.35159302,30.82901
412,0.008682251,34.21539
413,0.16551208,38.016132
414,0.82188416,42.221756
415,1.976181,46.821743
416,3.625473,51.80459
417,5.7649384,57.15782
418,8.390518,62.868145
419,11.495087,68.92122
420,15.070892,75.3019
421,19.108963,81.99424
422,23.597794,88.9815
423,28.528885,96.24636
424,33.88861,103.77052
425,39.663605,111.53518
426,45.839386,119.52091
427,52.398483,127.70775
428,59.32849,136.07545
429,66.61014,144.6029
430,74.22525,153.26877
431,82.15476,162.05138
432,90.376305,170.92879
433,98.87435,179.87907
434,107.6252,188.87961
435,116.606964,197.90788
436,125.79718,206.94133
437,135.17001,215.95735
438,144.70773,224.93373
439,154.38368,233.84773
440,164.17365,242.67708
441,174.05318,251.39969
442,183.99454,259.99374
443,193.97891,268.4381
444,203.97836,276.71136
445,213.96785,284.79282
446,223.92242,292.66226
447,233.8142,300.30002
448,243.62447,307.68735
449,253.32568,314.80545
450,262.8936,321.63654
451,272.3043,328.1635
452,281.53146,334.3701
453,290.55765,340.24106
454,299.35748,345.76144
455,307.90894,350.91742
456,316.1906,355.69614
457,324.17947,360.08566
458,331.8604,364.07526
459,339.2117,367.6547
460,346.215,370.81503
461,352.85278,373.5484
462,359.10663,375.84793
463,364.96472,377.70807
464,370.4104,379.12402
465,375.4301,380.0922
466,380.0113,380.61023
467,384.1413,380.6768
468,387.81232,380.29187
469,391.01385,379.4563
470,393.73785,378.17215
471,395.9776,376.44266
472,397.72696,374.27213
473,398.98267,371.66605
474,399.74097,368.6309
475,399.99994,365.17422
476,399.75894,361.3047
477,399.01892,357.032
478,397.78122,352.36682
479,396.04913,347.32077
480,393.82697,341.9065
481,391.12024,336.13757
482,387.93683,330.02838
483,384.2827,323.59415
484,380.1679,316.85095
485,375.60275,309.81573
486,370.59863,302.50607
487,365.16974,294.94022
488,359.3264,287.13696
489,353.08475,279.1159
490,346.46045,270.89716
491,339.46997,262.50122
492,332.1332,253.94913
493,324.46393,245.26202
494,316.48352,236.4618
495,308.2119,227.57051
496,299.6698,218.61035
497,290.8813,209.60374
498,281.8629,200.5729
499,272.6399,191.54068
500,263.2353,182.52966
501,253.67264,173.56238
502,243.97878,164.66124
503,234.17203,155.84819
504,224.27988,147.14554
505,214.32703,138.57506
506,204.33835,130.15817
507,194.34189,121.91593
508,184.35652,113.86861
509,174.41025,106.03661
510,164.52795,98.439545
511,154.73433,91.09639
512,145.0568,84.025505
513,135.51364,77.244255
514,126.131676,70.76988
515,116.93437,64.618576
516,107.94472,58.805714
517,99.18781,53.345825
518,90.68021,48.252274
519,82.44587,43.53806
520,74.50541,39.21497
521,66.87865,35.293808
522,59.586838,31.784382
523,52.643753,28.695219
524,46.06903,26.034271
525,39.87909,23.808187
526,34.089417,22.022532
527,28.71608,20.681767
528,23.769196,19.789064
529,19.262848,19.346828
530,15.208313,19.35616
531,11.615723,19.81703
532,8.494919,20.728289
533,5.851822,22.087553
534,3.6940308,23.891523
535,2.0269928,26.135689
536,0.8548279,28.814432
537,0.18061829,31.921055
538,0.005630493,35.44777
539,0.33058167,39.385784
540,1.1546631,43.725254
541,2.4758148,48.45532
542,4.2901154,53.56415
543,6.594116,59.039043
544,9.381607,64.86626
545,12.645584,71.03122
546,16.377914,77.51852
547,20.567902,84.31191
548,25.207657,91.39458
549,30.284348,98.74868
550,35.785294,106.355835
551,41.696747,114.19701
552,48.001923,122.252594
553,54.68895,130.50267
554,61.739197,138.92642
555,69.135086,147.50279
556,76.85809,156.21031
557,84.886444,165.02724
558,93.20495,173.93178
559,101.79043,182.90143
560,110.621414,191.91376
561,119.67581,200.94626
562,128.92816,209.97632
563,138.36096,218.98167
564,147.94786,227.93954
565,157.66487,236.82751
566,167.4877,245.62337
567,177.38878,254.30511
568,187.3494,262.85138
569,197.34163,271.24048
570,207.34052,279.45148
571,217.32104,287.46384
572,227.25526,295.25748
573,237.12439,302.8133
574,246.9007,310.1121
575,256.55978,317.1356
576,266.07745,323.86624
577,275.42715,330.2872
578,284.59116,336.38275
579,293.5437,342.1374
580,302.26242,347.53668
581,310.7255,352.56717
582,318.90933,357.21628
583,326.79846,361.47263
584,334.3706,365.32532
585,341.60687,368.76474
586,348.48914,371.7823
587,354.9983,374.37042
588,361.12207,376.5229
589,366.84302,378.2341
590,372.1469,379.4998
591,377.02045,380.31677
592,381.45026,380.683
593,385.42786,380.59778
594,388.94193,380.06113
595,391.98367,379.07437
596,394.54553,377.64
597,396.62048,375.76163
598,398.20465,373.444
599,399.29333,370.69284
600,399.88385,367.51505
601,399.97467,363.91852
602,399.5658,359.9123
603,398.65802,355.50635
604,397.25366,350.7117
605,395.35617,345.54037
606,392.97034,340.0053
607,390.1031,334.12033
608,386.75983,327.90002
609,382.9497,321.36005
610,378.68222,314.51675
611,373.96808,307.38727
612,368.8207,299.98938
613,363.24982,292.34146
614,357.2708,284.46277
615,350.89868,276.373
616,344.14932,268.09235
617,337.04187,259.6416
618,329.5897,251.0416
619,321.8136,242.31404
620,313.73297,233.48076
621,305.36804,224.56386
622,296.7424,215.58562
623,287.8723,206.5682
624,278.7826,197.53442
625,269.4959,188.50685
626,260.0355,179.50807
627,250.42798,170.56058
628,240.69148,161.68642
629,230.85327,152.90808
630,220.93793,144.24751
631,210.97025,135.72636
632,200.9782,127.36594
633,190.98064,119.1868
634,181.00565,111.2097
635,171.07812,103.4546
636,161.2229,95.94087
637,151.46758,88.68732
638,141.83058,81.71173
639,132.33899,75.03186
640,123.01655,68.6644
641,113.886536,62.625275
642,104.97448,56.92958
643,96.29722,51.59126
644,87.87918,46.62393
645,79.74142,42.040016
646,71.9043,37.850975
647,64.38962,34.067276
648,57.21158,30.698128
649,50.390488,27.752188
650,43.94339,25.236822
651,37.886414,23.158316
652,32.236343,21.521862
653,27.00383,20.331364
654,22.203796,19.58998
655,17.84822,19.299557
656,13.947983,19.460815
657,10.513794,20.073353
658,7.55217,21.135525
659,5.0716095,22.644787
660,3.078354,24.597364
661,1.5773468,26.988367
662,0.57258606,29.811815
663,0.065963745,33.06062
664,0.059143066,36.726692
665,0.552124,40.800865
666,1.5436707,45.272945
667,3.0308075,50.131756
668,5.010681,55.365196
669,7.478012,60.960144
670,10.42659,66.9026
671,13.84906,73.17772
672,17.735626,79.7698
673,22.078903,86.66249
674,26.866974,93.83844
675,32.087814,101.27972
676,37.728424,108.96771
677,43.77275,116.883194
678,50.209396,125.006584
679,57.020493,133.31738
680,64.18901,141.79482
681,71.69702,150.4177
682,79.52334,159.16443
683,87.653145,168.01344
684,96.063805,176.94237
685,104.734276,185.92888
686,113.6429,194.9505
687,122.76457,203.98468
688,132.08208,213.00914
689,141.56937,222.00104
690,151.2027,230.9379
691,160.95804,239.79736
692,170.80794,248.55728
693,180.73381,257.1961
694,190.70784,265.69193
695,200.70511,274.0235
696,210.7006,282.16998
697,220.66632,290.11102
698,230.58342,297.82712
699,240.42407,305.29865
700,250.16367,312.50693
701,259.77786,319.434
702,269.23978,326.06247
703,278.5315,332.3761
704,287.62692,338.35883
705,296.5033,343.9957
706,305.13843,349.27264
707,313.50824,354.17645
708,321.5969,358.69513
709,329.38156,362.81714
710,336.84283,366.53223
711,343.962,369.83105
712,350.7193,372.70538
713,357.10196,375.1483
714,363.0919,377.15344
715,368.67413,378.71585
716,373.83472,379.83163
717,378.5594,380.49796
718,382.83917,380.71338
719,386.66193,380.4772
720,390.01807,379.79
721,392.89923,378.65356
722,395.2975,377.07074
723,397.20837,375.04553
724,398.62625,372.583
725,399.54764,369.68933
726,399.97018,366.37173
727,399.89294,362.63858
728,399.3161,358.49924
729,398.24097,353.96405
730,396.6703,349.0444
731,394.60797,343.75266
732,392.06006,338.10208
733,389.0313,332.10678
734,385.53,325.78183
735,381.56494,319.14316
736,377.146,312.20743
737,372.28577,304.99203
738,366.99344,297.51495
739,361.2837,289.79514
740,355.17075,281.852
741,348.66992,273.70544
742,341.7996,265.37607
743,334.57275,256.88458
744,327.00952,248.2526
745,319.12878,239.50182
746,310.95026,230.65439
747,302.497,221.73262
748,293.785,212.7588
749,284.83853,203.7559
750,275.68,194.74672
751,266.33228,185.75415
752,256.82166,176.80103
753,247.16612,167.90985
754,237.39268,159.1036
755,227.52577,150.40482
756,217.59006,141.83583
757,207.61342,133.4187
758,197.6147,125.17485
759,187.62195,117.12598
760,177.66014,109.29309
761,167.75418,101.696754
762,157.93181,94.35704
763,148.21158,87.293175
764,138.62082,80.52447
765,129.18349,74.06932
766,119.92319,67.945526
767,110.86579,62.170235
768,102.02842,56.75962
769,93.43594,51.729755
770,85.10986,47.095737
771,77.070984,42.87195
772,69.341705,39.072056
773,61.936646,35.708763
774,54.87671,32.79455
775,48.17955,30.340979
776,41.861908,28.358915
777,35.94133,26.858583
778,30.429,25.84939
779,25.340546,25.340546
