no,raw,smooth
0,393.13342,340.3604
1,390.2942,334.49673
2,386.98114,328.29703
3,383.201,321.77658
4,378.9631,314.95166
5,374.27515,307.8393
6,369.15128,300.45752
7,363.60782,292.8249
8,357.65564,284.96014
9,351.30957,276.88287
10,344.5813,268.61325
11,337.49133,260.17236
12,330.06213,251.58136
13,322.308,242.86128
14,314.24835,234.03387
15,305.89804,225.12115
16,297.28287,216.14597
17,288.42984,207.13075
18,279.3559,198.09752
19,270.08368,189.06882
20,260.63058,180.06717
21,251.02582,171.11568
22,241.2994,162.23677
23,231.4698,153.45203
24,221.56158,144.78339
25,211.5934,136.25247
26,201.59622,127.881256
27,191.60115,119.690704
28,181.62706,111.70065
29,171.69888,103.93105
30,161.8354,96.40129
31,152.06738,89.13084
32,142.42511,82.137886
33,132.92667,75.43931
34,123.595795,69.05183
35,114.45029,62.99139
36,105.51876,57.273735
37,96.8288,51.913177
38,88.396576,46.922554
39,80.24317,42.31433
40,72.38425,38.100014
41,64.84453,34.290653
42,57.64717,30.895779
43,50.805435,27.923403
44,44.33644,25.380955
45,38.25273,23.274792
46,32.57361,21.610577
47,27.316345,20.392464
48,22.490509,19.623144
49,18.108109,19.30455
50,14.177887,19.43749
51,10.712448,20.02189
52,7.722168,21.056273
53,5.2122345,22.53784
54,3.1889496,24.462908
55,1.6565399,26.826681
56,0.6202698,29.623365
57,0.08287048,32.845932
58,0.044937134,36.486275
59,0.50653076,40.535313
60,1.4672546,44.982956
61,2.9245605,49.818035
62,4.873474,55.02842
63,7.30986,60.601192
64,10.227661,66.52245
65,13.621765,72.777435
66,17.48204,79.35029
67,21.796097,86.22453
68,26.555344,93.38325
69,31.74791,100.80857
70,37.364365,108.48198
71,43.38762,116.38394
72,49.79857,124.49465
73,56.584778,132.79422
74,63.729263,141.26193
75,71.21886,149.87668
76,79.03057,158.61644
77,87.13985,167.45932
78,95.53106,176.3837
79,104.183266,185.36734
80,113.080345,194.3878
81,122.19484,203.42198
82,131.49821,212.44722
83,140.97272,221.44156
84,150.5947,230.38254
85,160.34607,239.24786
86,170.19664,248.01474
87,180.11569,256.6612
88,190.08441,265.16626
89,200.07791,273.5087
90,210.0773,281.6677
91,220.05148,289.6222
92,229.96948,297.35226
93,239.8126,304.83923
94,249.55627,312.06442
95,259.18195,319.00977
96,268.6596,325.65732
97,277.9599,331.9904
98,287.06543,337.99377
99,295.95346,343.6525
100,304.60696,348.95242
101,312.99884,353.8797
102,321.10318,358.42203
103,328.90497,362.56857
104,336.38474,366.30896
105,343.528,369.6339
106,350.31232,372.53458
107,356.71686,375.00375
108,362.72983,377.03564
109,368.33627,378.62518
110,373.5252,379.7684
111,378.28012,380.46213
112,382.5866,380.7046
113,386.43692,380.49548
114,389.82147,379.83533
115,392.73346,378.72577
116,395.16333,377.16937
117,397.104,375.17007
118,398.55225,372.733
119,399.50452,369.8642
120,399.95844,366.57086
121,399.91223,362.86115
122,399.36646,358.7444
123,398.3226,354.23083
124,396.7833,349.33173
125,394.75098,344.05933
126,392.23154,338.42694
127,389.23322,332.44867
128,385.7622,326.13928
129,381.82706,319.5145
130,377.43484,312.59088
131,372.59882,305.386
132,367.3344,297.9179
133,361.65198,290.205
134,355.56567,282.26645
135,349.08667,274.1221
136,342.23477,265.7927
137,335.0316,257.29913
138,327.49103,248.6622
139,319.63202,239.90346
140,311.46902,231.04474
141,303.02722,222.10872
142,294.33313,213.11778
143,285.40332,204.09386
144,276.2602,195.05948
145,266.92078,186.03717
146,257.41397,177.05011
147,247.76947,168.1208
148,238.00565,159.27095
149,228.14688,150.52266
150,218.2117,141.89775
151,208.23097,133.41843
152,198.23576,125.10593
153,188.24496,116.98039
154,178.28352,109.0621
155,168.37032,101.370834
156,158.53622,93.926445
157,148.81174,86.74758
158,139.21515,79.85157
159,129.7704,73.255615
160,120.495514,66.9762
161,111.419495,61.029606
162,102.57036,55.430733
163,93.96464,50.193
164,85.623825,45.329483
165,77.56392,40.852337
166,69.81026,36.77327
167,62.386673,33.102497
168,55.3069,29.848701
169,48.588593,27.020014
170,42.244797,24.623505
171,36.29561,22.665585
172,30.759125,21.151138
173,25.645477,20.083584
174,20.967392,19.465595
175,16.73413,19.298729
176,12.95929,19.583685
177,9.65416,20.319729
178,6.8245697,21.504793
179,4.4775696,23.13593
180,2.6180573,25.20908
181,1.2522583,27.719193
182,0.38397217,30.659964
183,0.0143585205,34.023964
184,0.14437866,37.80281
185,0.77423096,41.98708
186,1.9024048,46.566284
187,3.5249329,51.528942
188,5.6383057,56.862724
189,8.237259,62.554325
190,11.3173065,68.589554
191,14.869293,74.95314
192,18.881775,81.62912
193,23.346725,88.60105
194,28.253006,95.85154
195,33.59175,103.36249
196,39.346725,111.11479
197,45.499664,119.08903
198,52.03859,127.265625
199,58.94716,135.62419
200,66.21265,144.14388
201,73.81278,152.8029
202,81.72363,161.57959
203,89.92996,170.45248
204,98.411285,179.39943
205,107.1518,188.39812
206,116.12456,197.42549
207,125.30145,206.45894
208,134.66498,215.47644
209,144.19171,224.4555
210,153.8638,233.3737
211,163.6513,242.20815
212,173.52368,250.93669
213,183.46219,259.53815
214,193.44202,267.99106
215,203.44434,276.2743
216,213.43803,284.36652
217,223.39206,292.24747
218,233.28764,299.89807
219,243.10007,307.29922
220,252.81071,314.4325
221,262.38925,321.27936
222,271.80603,327.82272
223,281.04346,334.0468
224,290.07837,339.9361
225,298.8936,345.47583
226,307.4614,350.65167
227,315.7555,355.4506
228,323.76035,359.86115
229,331.45605,363.87234
230,338.8277,367.47418
231,345.85214,370.65714
232,352.5078,373.41327
233,358.78244,375.73608
234,364.6604,377.61984
235,370.13022,379.05978
236,375.1745,380.05194
237,379.7779,380.59387
238,383.9322,380.68454
239,387.62698,380.3237
240,390.85486,379.51224
241,393.60535,378.25195
242,395.8703,376.54602
243,397.64594,374.39886
244,398.92783,371.81586
245,399.71307,368.8034
246,399.99872,365.369
247,399.78442,361.52124
248,399.07104,357.26978
249,397.8603,352.62518
250,396.15405,347.59906
251,393.95718,342.20404
252,391.27695,336.4537
253,388.11884,330.36224
254,384.4884,323.94485
255,380.39917,317.2178
256,375.85632,310.19766
257,370.87677,302.90225
258,365.47034,295.34955
259,359.64685,287.55835
260,353.42792,279.54852
261,346.82156,271.3397
262,339.85233,262.95282
263,332.5337,254.40843
264,324.87918,245.72784
265,316.91727,236.93326
266,308.65814,228.04616
267,300.1325,219.08928
268,291.35672,210.08449
269,282.34714,201.05424
270,273.13727,192.02171
271,263.7389,183.00888
272,254.18697,174.0389
273,244.49965,165.13354
274,234.69516,156.3151
275,224.80995,147.6062
276,214.85666,139.028
277,204.87233,130.6026
278,194.87581,122.35042
279,184.886,114.292046
280,174.94006,106.44827
281,165.05072,98.83807
282,155.25475,91.48112
283,145.57056,84.395164
284,136.01657,77.59791
285,126.62829,71.10695
286,117.417755,64.93791
287,108.41921,59.106815
288,99.64947,53.62766
289,91.1253,48.514126
290,82.87841,43.779552
291,74.91936,39.435234
292,67.277725,35.492554
293,59.96768,31.960869
294,53.00334,28.849
295,46.410583,26.165186
296,40.19786,23.915699
297,34.388275,22.10657
298,28.992432,20.741936
299,24.020905,19.825216
300,19.492203,19.35903
301,15.412094,19.344233
302,11.795761,19.781137
303,8.649612,20.668402
304,5.980011,22.003822
305,3.7969208,23.784246
306,2.1031036,26.005062
307,0.9048767,28.660837
308,0.20402527,31.744833
309,0.0023498535,35.249367
310,0.30059814,39.165703
311,1.0983887,43.48405
312,2.392746,48.19357
313,4.180771,53.28255
314,6.459564,58.738308
315,9.220612,64.54706
316,12.460403,70.69444
317,16.166885,77.164894
318,20.332642,83.94245
319,24.95018,91.01021
320,30.002365,98.35021
321,35.482727,105.94442
322,41.37088,113.7735
323,47.655334,121.81824
324,54.324554,130.05856
325,61.35376,138.47346
326,68.73395,147.04233
327,76.43767,155.74326
328,84.45008,164.555
329,92.75632,173.45555
330,101.32549,182.42213
331,110.146645,191.43288
332,119.18696,200.46469
333,128.42917,209.49554
334,137.85597,218.50293
335,147.43234,227.4637
336,157.146,236.35606
337,166.96082,245.15718
338,176.85818,253.84567
339,186.81944,262.39984
340,196.80759,270.79767
341,206.80978,279.0188
342,216.78888,287.04205
343,226.72603,294.84796
344,236.60242,302.41708
345,246.38132,309.72983
346,256.05017,316.7686
347,265.57312,323.51508
348,274.9322,329.9531
349,284.10962,336.06653
350,293.0713,341.83954
351,301.80566,347.25824
352,310.2803,352.30853
353,318.47943,356.97833
354,326.38733,361.256
355,333.97455,365.1303
356,341.23135,368.59207
357,348.1308,371.63217
358,354.66022,374.24344
359,360.80685,376.41934
360,366.54788,378.15405
361,371.87595,379.44363
362,376.77124,380.28452
363,381.22498,380.6749
364,385.2282,380.6138
365,388.7661,380.10107
366,391.83417,379.1383
367,394.42093,377.72766
368,396.522,375.8729
369,398.13293,373.57855
370,399.24774,370.85028
371,399.86505,367.695
372,399.98245,364.12054
373,399.60028,360.13593
374,398.71875,355.751
375,397.34116,350.9768
376,395.46924,345.82523
377,393.11005,340.30923
378,390.26837,334.44247
379,386.9492,328.23962
380,383.16486,321.71634
381,378.92017,314.88873
382,374.23096,307.77414
383,369.10648,300.39005
384,363.55603,292.7549
385,357.60022,284.88815
386,351.24667,276.80905
387,344.51904,268.5382
388,337.4304,260.0959
389,329.99374,251.50319
390,322.23676,242.78203
391,314.1694,233.95374
392,305.82166,225.04088
393,297.20953,216.06523
394,288.34906,207.04921
395,279.27325,198.0159
396,269.99362,188.98732
397,260.54477,179.98663
398,250.94466,171.03574
399,241.2113,162.15697
400,231.38087,153.37317
401,221.466,144.70564
402,211.50351,136.17671
403,201.5123,127.80707
404,191.5112,119.6176
405,181.53741,111.629425
406,171.6037,103.86188
407,161.74702,96.335014
408,151.9859,89.06701
409,142.3389,82.07602
410,132.84186,75.38015
411,123.506966,68.995514
412,114.36891,62.938683
413,105.44479,57.224216
414,96.75168,51.866375
415,88.32188,46.87912
416,80.16618,42.27437
417,72.314926,38.06417
418,64.782684,34.258533
419,57.58394,30.866962
420,50.745483,27.89841
421,44.276093,25.359848
422,38.1998,23.258043
423,32.52771,21.597849
424,27.270935,20.383419
425,22.449036,19.618141
426,18.068161,19.303598
427,14.144592,19.44087
428,10.685364,20.029346
429,7.697403,21.067566
430,5.1918335,22.553139
431,3.1718597,24.482172
432,1.6450043,26.849985
433,0.613678,29.650537
434,0.08030701,32.876858
435,0.04685974,36.52092
436,0.51338196,40.573597
437,1.4781494,45.024734
438,2.9388733,49.863243
439,4.8932495,55.07706
440,7.3339996,60.653038
441,10.258026,66.57738
442,13.654434,72.83508
443,17.516373,79.41071
444,21.83699,86.28786
445,26.60019,93.449066
446,31.799896,100.876724
447,37.41678,108.551926
448,43.439835,116.45583
449,49.858032,124.568726
450,56.647537,132.86992
451,63.799637,141.33908
452,71.287766,149.95459
453,79.09743,158.69534
454,87.21419,167.53955
455,95.60784,176.4646
456,104.26767,185.44868
457,113.161446,194.4688
458,122.27217,203.50294
459,131.58281,212.5286
460,141.05875,221.52258
461,150.68787,230.46301
462,160.43433,239.32692
463,170.27965,248.09277
464,180.20529,256.73868
465,190.17435,265.2424
466,200.17404,273.5833
467,210.16722,281.7399
468,220.135,289.6924
469,230.0585,297.42105
470,239.90083,304.90576
471,249.64941,312.12854
472,259.26794,319.07068
473,268.73843,325.71545
474,278.04282,332.04623
475,287.14648,338.0466
476,296.0378,343.70215
477,304.68372,348.9982
478,313.06805,353.92203
479,321.1748,358.46136
480,328.97382,362.6043
481,336.45505,366.34106
482,343.59073,369.66174
483,350.36768,372.55853
484,356.77277,375.02417
485,362.78217,377.05212
486,368.38818,378.63766
487,373.56995,379.77652
488,378.31815,380.46616
489,382.62332,380.70483
490,386.46948,380.49167
491,389.85175,379.82748
492,392.75748,378.71368
493,395.18164,377.15326
494,397.11926,375.15012
495,398.56305,372.70914
496,399.51123,369.8365
497,399.96027,366.5393
498,399.90973,362.82587
499,399.35925,358.70544
500,398.3109,354.1884
501,396.76608,349.2859
502,394.73047,344.0103
503,392.20834,338.37476
504,389.20407,332.39325
505,385.72882,326.08093
506,381.787,319.4534
507,377.39328,312.52744
508,372.5564,305.32013
509,367.2851,297.84943
510,361.59894,290.13437
511,355.50525,282.19388
512,349.02667,274.04816
513,342.17575,265.71722
514,334.96515,257.22183
515,327.42166,248.58368
516,319.55493,239.8239
517,311.39426,230.9649
518,302.9553,222.02832
519,294.25372,213.03644
520,285.3219,204.0123
521,276.1713,194.9779
522,266.8359,185.95642
523,257.33356,176.96982
524,247.68204,168.04053
525,237.91725,159.19147
526,228.0517,150.44415
527,218.12204,141.82109
528,208.14711,133.34322
529,198.14574,125.03167
530,188.15509,116.90788
531,178.18796,108.99152
532,168.28142,101.30304
533,158.45412,93.861
534,148.72472,86.68399
535,139.12938,79.79057
536,129.68039,73.19737
537,120.4129,66.921486
538,111.344246,60.977997
539,102.491745,55.38175
540,93.888306,50.147305
541,85.54497,45.287193
542,77.49274,40.81411
543,69.74655,36.738705
544,62.321365,33.071167
545,55.24475,29.821144
546,48.525803,26.9963
547,42.18947,24.604132
548,36.24739,22.650206
549,30.711182,21.139408
550,25.60138,20.07588
551,20.92456,19.461935
552,16.698105,19.299421
553,12.929581,19.588455
554,9.626541,20.328331
555,6.8012543,21.51742
556,4.457367,23.15255
557,2.6035614,25.229794
558,1.2429047,27.743818
559,0.3784027,30.688366
560,0.013320923,34.05614
561,0.14805603,37.83868
562,0.7821655,42.02653
563,1.913971,46.60924
564,3.5417786,51.575382
565,5.659561,56.91245
566,8.264587,62.607216
567,11.347168,68.64529
568,14.901062,75.01174
569,18.919983,81.69071
570,23.388962,88.66524
571,28.302292,95.91816
572,33.64171,103.43104
573,39.39673,111.18541
574,45.556854,119.161934
575,52.099182,127.34028
576,59.015335,135.70041
577,66.27959,144.22098
578,73.87792,152.88113
579,81.79625,161.65929
580,90.00515,170.53296
581,98.49411,179.4805
582,107.23156,188.47899
583,116.20076,197.50648
584,125.38499,206.54047
585,134.75008,215.55775
586,144.28403,224.53639
587,153.95142,233.45332
588,163.73384,242.28688
589,173.61292,251.015
590,183.55191,259.61523
591,193.5381,268.0667
592,203.53436,276.34766
593,213.52177,284.43802
594,223.48148,292.31763
595,233.37643,299.9661
596,243.19395,307.36496
597,252.89755,314.4951
598,262.469,321.33926
599,271.89008,327.88043
600,281.12573,334.1016
601,290.16418,339.9878
602,298.97183,345.52377
603,307.5322,350.69623
604,315.8289,355.49225
605,323.83105,359.8993
606,331.5285,363.90686
607,338.89252,367.50446
608,345.90955,370.68356
609,352.56604,373.43625
610,358.83716,375.7552
611,364.71497,377.63498
612,370.17755,379.07056
613,375.21497,380.0587
614,379.81732,380.5969
615,383.96753,380.68353
616,387.66025,380.31863
617,390.88177,379.5029
618,393.62637,378.23862
619,395.8885,376.52887
620,397.65973,374.3778
621,398.93774,371.79095
622,399.71783,368.77466
623,399.99902,365.33655
624,399.78024,361.48517
625,399.06235,357.23016
626,397.84625,352.58215
627,396.13647,347.5528
628,393.9367,342.1546
629,391.2506,336.40103
630,388.08826,330.30664
631,384.4536,323.88644
632,380.3603,317.15674
633,375.81635,310.13412
634,370.82996,302.83612
635,365.41974,295.28125
636,359.5926,287.4881
637,353.37015,279.4765
638,346.76456,271.2661
639,339.78793,262.8774
640,332.46625,254.3318
641,324.80884,245.65019
642,316.8442,236.8548
643,308.58768,227.9671
644,300.05457,219.00928
645,291.2766,210.00424
646,282.26508,200.974
647,273.05347,191.94167
648,263.65933,182.92924
649,254.10028,173.95924
650,244.41187,165.05469
651,234.60649,156.23721
652,224.72061,147.52953
653,214.77296,138.95274
654,204.78232,130.52827
655,194.7858,122.27783
656,184.79623,114.2214
657,174.85074,106.37975
658,164.96808,98.771866
659,155.16699,91.41673
660,145.48392,84.333374
661,135.93127,77.53887
662,126.54453,71.05083
663,117.341324,64.88486
664,108.33919,59.056366
665,99.571594,53.580498
666,91.04978,48.470375
667,82.80544,43.73933
668,74.853874,39.39865
669,67.21039,35.459183
670,59.90341,31.931273
671,52.942307,28.823257
672,46.35292,26.143364
673,40.1474,23.897858
674,34.337814,22.092354
675,28.94577,20.731749
676,23.97815,19.81908
677,19.453445,19.35696
678,15.379791,19.34624
679,11.76532,19.786957
680,8.623428,20.67825
681,5.958191,22.017675
682,3.77948,23.802063
683,2.090973,26.026794
684,0.8963318,28.68633
685,0.19996643,31.774109
686,0.0028076172,35.28235
687,0.305542,39.202297
688,1.107193,43.52416
689,2.406662,48.237156
690,4.199112,53.329433
691,6.4822845,58.78836
692,9.247665,64.60015
693,12.489578,70.75043
694,16.202362,77.22386
695,20.372192,84.00403
696,24.99376,91.074234
697,30.04982,98.41651
698,35.53047,106.01282
699,41.425735,113.84419
700,47.71367,121.89069
701,54.38626,130.13258
702,61.41867,138.54884
703,68.79727,147.11887
704,76.50848,155.82126
705,84.52358,164.63379
706,92.83233,173.53493
707,101.403824,182.50189
708,110.221634,191.51279
709,119.269325,200.54515
710,128.51324,209.5758
711,137.94156,218.58276
712,147.51921,227.54291
713,157.22797,236.43443
714,167.04962,245.23515
715,176.94762,253.92245
716,186.90929,262.47522
717,196.8976,270.87143
718,206.89368,279.09073
719,216.8786,287.11264
720,226.81526,294.9164
721,236.69093,302.48322
722,246.46889,309.79346
723,256.13077,316.82953
724,265.65814,323.57385
725,275.0157,330.00894
726,284.1913,336.11932
727,293.15097,341.88913
728,301.8779,347.3045
729,310.3554,352.3519
730,318.55197,357.01816
731,326.4571,361.2922
732,334.04135,365.16278
733,341.29077,368.62073
734,348.19128,371.65738
735,354.7173,374.26474
736,360.86035,376.43668
737,366.59772,378.1674
738,371.91885,379.45294
739,376.81335,380.29007
740,381.263,380.6764
741,385.26215,380.6112
742,388.79584,380.09445
743,391.85788,379.12766
744,394.44202,377.7132
745,396.5387,375.85443
746,398.1452,373.55618
747,399.25555,370.8241
748,399.8681,367.66504
749,399.98123,364.0869
750,399.59454,360.0987
751,398.70856,355.7103
752,397.3265,350.93274
753,395.45148,345.77786
754,393.08658,340.2586
755,390.2406,334.38885
756,386.91718,328.18314
757,383.12866,321.65714
758,378.88263,314.82697
759,374.18674,307.70966
760,369.0584,300.32333
761,363.50418,292.6861
762,357.54474,284.8174
763,351.19174,276.7366
764,344.4568,268.4638
765,337.36496,260.02014
766,329.9253,251.4263
767,322.1655,242.70418
768,314.10046,233.87514
769,305.74524,224.96121
770,297.13083,215.98521
771,288.2683,206.96904
772,279.19055,197.93579
773,269.915,188.90749
774,260.45895,179.90665
775,250.85759,170.95639
776,241.12318,162.07849
777,231.29196,153.29575
778,221.38254,144.6295
779,211.41362,136.1014
780,201.42226,127.73337
781,191.42125,119.545715
782,181.44775,111.55955
783,171.52063,103.7942
784,161.65865,96.26904
785,151.8985,89.00353
786,142.25269,82.015205
787,132.75705,75.32216
788,123.42942,68.940506
789,114.28755,62.88618
790,105.36546,57.17492
791,96.674576,51.820415
792,88.24719,46.83662
793,80.099,42.235447
794,72.24564,38.02839
795,64.716354,34.22647
796,57.520737,30.838707
797,50.685577,27.874039
798,44.223434,25.339424
799,38.14688,23.241201
800,32.478516,21.585016
801,27.22557,20.374628
802,22.407608,19.613413
803,18.03331,19.302948
804,14.111359,19.44402
805,10.656342,20.036537
806,7.6726837,21.078783
807,5.171463,22.56835
808,3.1569977,24.501337
809,1.6334991,26.87293
810,0.60665894,29.677313
811,0.07777405,32.907387
812,0.048828125,36.555122
813,0.51942444,40.611378
814,1.4891052,45.06604
815,2.9542847,49.907925
816,4.9130707,55.124996
817,7.3582,60.7041
818,10.284576,66.631424
819,13.687149,72.89219
820,17.553253,79.47053
821,21.877914,86.35023
822,26.64508,93.513824
823,31.845337,100.943695
824,37.46924,108.62129
825,43.495865,116.52708
826,49.917526,124.64166
827,56.710342,132.94435
828,63.861115,141.4148
829,71.35669,150.03188
830,79.16917,158.77357
831,87.28854,167.61852
832,95.68466,176.54407
833,104.34137,185.52844
834,113.24256,194.54922
835,122.35513,203.58331
836,131.66742,212.60867
837,141.14479,221.60214
838,150.76921,230.54185
839,160.52258,239.40549
840,170.36868,248.17026
841,180.29488,256.81488
842,190.26427,265.3171
843,200.25798,273.6563
844,210.25714,281.81168
845,220.22456,289.76218
846,230.1475,297.4886
847,239.98906,304.97095
848,249.73071,312.19116
849,259.35394,319.1312
850,268.823,325.77313
851,278.1257,332.10095
852,287.22754,338.09824
853,296.11142,343.75055
854,304.7604,349.0438
855,313.14233,353.96417
856,321.24643,358.49994
857,329.0426,362.63925
858,336.5164,366.37222
859,343.65338,369.68954
860,350.427,372.58246
861,356.82864,375.0442
862,362.83444,377.06815
863,368.43344,378.64966
864,373.6147,379.7848
865,378.3589,380.47034
866,382.66,380.70496
867,386.502,380.48776
868,389.8781,379.81952
869,392.78146,378.7019
870,395.2013,377.1375
871,397.13446,375.13043
872,398.57382,372.68555
873,399.5171,369.80908
874,399.96204,366.50818
875,399.90698,362.79108
876,399.35205,358.6671
877,398.29926,354.14658
878,396.75104,349.24072
879,394.7099,343.9618
880,392.18344,338.32312
881,389.17487,332.33862
882,385.69537,326.0235
883,381.75198,319.39328
884,377.35168,312.46454
885,372.51086,305.25485
886,367.23572,297.78195
887,361.5459,290.06488
888,355.45245,282.12256
889,348.96658,273.9748
890,342.11243,265.64236
891,334.89868,257.1457
892,327.35223,248.50647
893,319.48767,239.74583
894,311.31946,230.88565
895,302.87808,221.94858
896,294.1743,212.9564
897,285.24048,203.93219
898,276.0937,194.89793
899,266.75104,185.87617
900,257.2473,176.89008
901,247.5946,167.9615
902,237.82884,159.11339
903,227.96858,150.36723
904,218.03236,141.74487
905,208.05716,133.2685
906,198.0557,124.95865
907,188.0652,116.836754
908,178.10452,108.922485
909,168.19252,101.23559
910,158.36606,93.79593
911,148.6377,86.62147
912,139.04361,79.73078
913,129.60184,73.14047
914,120.330315,66.86699
915,111.26355,60.926617
916,102.41314,55.333626
917,93.812004,50.10257
918,85.47615,45.245968
919,77.421585,40.775948
920,69.67825,36.704212
921,62.256073,33.040432
922,55.182632,29.794249
923,48.470993,26.973318
924,42.13417,24.584688
925,36.195724,22.634747
926,30.663254,21.127974
927,25.557312,20.068499
928,20.887192,19.458632
929,16.66211,19.299904
930,12.897751,19.592993
931,9.598953,20.336908
932,6.778,21.530014
933,4.4397583,23.169128
934,2.589096,25.25017
935,1.2328949,27.768068
936,0.3728943,30.716423
937,0.012283325,34.08793
938,0.15130615,37.87411
939,0.7901459,42.065536
940,1.9264069,46.65169
941,3.55867,51.621166
942,5.680847,56.961445
943,8.288483,62.65929
944,11.37709,68.70049
945,14.935196,75.06976
946,18.958221,81.75138
947,23.431229,88.7284
948,28.345352,95.98364
949,33.69171,103.499016
950,39.450394,111.25539
951,45.614075,119.23373
952,52.159805,127.41369
953,59.07486,135.77524
954,66.34656,144.2975
955,73.9478,152.95872
956,81.86889,161.73773
957,90.08035,170.61205
958,98.56644,179.56001
959,107.31133,188.5593
960,116.282524,197.58685
961,125.46853,206.62068
962,134.83519,215.63759
963,144.36465,224.61563
964,154.03903,233.53241
965,163.82239,242.36502
966,173.70218,251.092
967,183.64165,259.69086
968,193.622,268.14078
969,203.62437,276.42065
970,213.6116,284.50916
971,223.57089,292.38666
972,233.4652,300.03287
973,243.2759,307.42926
974,252.98438,314.55743
975,262.5545,321.3989
976,271.9741,327.93716
977,281.20804,334.15527
978,290.2391,340.03833
979,299.05005,345.5716
980,307.6081,350.74066
981,315.90228,355.53317
982,323.90176,359.93658
983,331.5917,363.94046
984,338.95728,367.53476
985,345.97113,370.71005
986,352.6242,373.45883
987,358.89188,375.7738
988,364.76254,377.64957
989,370.22482,379.08145
990,375.25836,380.06552
991,379.85675,380.59964
992,384.00284,380.6822
993,387.68927,380.31326
994,390.9086,379.4937
995,393.6489,378.2254
996,395.90665,376.5117
997,397.6734,374.3567
998,398.94635,371.76596
999,399.7226,368.74594
1000,399.99927,365.3041
1001,399.776,361.4491
1002,399.05362,357.19055
1003,397.83392,352.5391
1004,396.11884,347.50635
1005,393.91467,342.10498
1006,391.22424,336.34836
1007,388.05762,330.25104
1008,384.42117,323.8281
1009,380.32135,317.09555
1010,375.77338,310.07047
1011,370.78314,302.77014
1012,365.36914,295.21317
1013,359.542,287.41806
1014,353.31235,279.4043
1015,346.70337,271.1923
1016,339.7235,262.8022
1017,332.39877,254.25539
1018,324.74326,245.57278
1019,316.77112,236.77606
1020,308.51205,227.88773
1021,299.9766,218.92947
1022,291.1965,209.92424
1023,282.18857,200.894
1024,272.96964,191.86127
1025,263.57397,182.84923
1026,254.01361,173.87982
1027,244.32408,164.97606
1028,234.52382,156.15962
1029,224.63126,147.4525
1030,214.68317,138.87709
1031,204.6923,130.4542
1032,194.6958,122.20552
1033,184.71254,114.15105
1034,174.76143,106.31088
1035,164.87944,98.70527
1036,155.07925,91.352585
1037,145.39731,84.27184
1038,135.85176,77.480125
1039,126.4608,70.99439
1040,117.25934,64.83146
1041,108.25916,59.00614
1042,99.493744,53.533585
1043,90.97941,48.426903
1044,82.73248,43.698845
1045,74.78366,39.361774
1046,67.14308,35.42601
1047,59.839172,31.901892
1048,52.88542,28.79775
1049,46.295303,26.121344
1050,40.093307,23.879793
1051,34.2874,22.078293
1052,28.899124,20.721725
1053,23.938324,19.813128
1054,19.414734,19.354773
1055,15.345184,19.348112
1056,11.734909,19.792881
1057,8.597305,20.688211
1058,5.9378815,22.031647
1059,3.762085,23.819843
1060,2.078003,26.048483
1061,0.88783264,28.71187
1062,0.19596863,31.80343
1063,0.0032653809,35.315372
1064,0.31054688,39.23894
1065,1.1166687,43.56432
1066,2.4205933,48.280727
1067,4.2174835,53.3763
1068,6.503479,58.83839
1069,9.2747345,64.65338
1070,12.52092,70.806564
1071,16.237885,77.28275
1072,20.41182,84.06552
1073,25.034393,91.13815
1074,30.097305,98.48302
1075,35.581726,106.081436
1076,41.480606,113.91474
1077,47.772064,121.96298
1078,54.443817,130.20642
1079,61.483597,138.62448
1080,68.86525,147.1957
1081,76.57931,155.89908
1082,84.5971,164.71239
1083,92.9032,173.61409
1084,101.48216,182.58197
1085,110.30209,191.59306
1086,119.35171,200.6254
1087,128.59734,209.65582
1088,138.02136,218.66234
1089,147.6061,227.62245
1090,157.31593,236.51317
1091,167.13843,245.31287
1092,177.03705,253.99893
1093,186.99304,262.55026
1094,196.98763,270.94553
1095,206.98366,279.16306
1096,216.96832,287.18298
1097,226.90448,294.98462
1098,236.77344,302.54907
1099,246.55646,309.85748
1100,256.21716,316.89093
1101,265.7432,323.63248
1102,275.09912,330.06464
1103,284.26746,336.1719
1104,293.23062,341.93906
1105,301.95538,347.3511
1106,310.43048,352.3951
1107,318.62448,357.05783
1108,326.5221,361.3282
1109,334.10815,365.19553
1110,341.3545,368.64966
1111,348.25177,371.68246
1112,354.77432,374.2859
1113,360.91022,376.45386
1114,366.64752,378.18094
1115,371.96484,379.46243
1116,376.8554,380.29553
1117,381.30103,380.67776
1118,385.29373,380.60852
1119,388.82553,380.08795
1120,391.88327,379.1171
1121,394.46307,377.69864
1122,396.55536,375.8359
1123,398.1566,373.53375
1124,399.26328,370.7979
1125,399.87134,367.6351
1126,399.97998,364.0533
1127,399.5888,360.0615
1128,398.699,355.66956
1129,397.31183,350.88852
1130,395.43237,345.7304
1131,393.0631,340.20798
1132,390.2128,334.3352
1133,386.88727,328.1266
1134,383.09244,321.59763
1135,378.84235,314.7649
1136,374.14246,307.64517
1137,369.01025,300.2566
1138,363.4558,292.6173
1139,357.48926,284.74637
1140,351.1328,276.66385
1141,344.39453,268.38953
1142,337.2995,259.94452
1143,329.86148,251.34952
1144,322.09418,242.62598
1145,314.02652,233.79617
1146,305.66882,224.8817
1147,297.05212,215.90536
1148,288.19296,206.88905
1149,279.10788,197.8553
1150,269.83063,188.82724
1151,260.37314,179.82687
1152,250.77051,170.8773
1153,241.04105,162.00027
1154,231.20302,153.21797
1155,221.29303,144.55298
1156,211.32373,136.02632
1157,201.33223,127.65994
1158,191.33739,119.47414
1159,181.35811,111.489334
1160,171.43152,103.72614
1161,161.57028,96.20333
1162,151.81111,88.94034
1163,142.17233,81.9547
1164,132.67227,75.263855
1165,123.346245,68.88515
1166,114.20622,62.83392
1167,105.286156,57.125885
1168,96.602715,51.774742
1169,88.17253,46.793858
1170,80.02695,42.196228
1171,72.176384,37.992813
1172,64.65004,34.194637
1173,57.461853,30.810705
1174,50.625687,27.849466
1175,44.166977,25.318775
1176,38.09401,23.22453
1177,32.429337,21.572367
1178,27.183304,20.366037
1179,22.36621,19.608564
1180,17.995972,19.302158
1181,14.078171,19.44729
1182,10.627365,20.04386
1183,7.6496735,21.090137
1184,5.1511536,22.583523
1185,3.1410828,24.520452
1186,1.6220398,26.895939
1187,0.5996704,29.70415
1188,0.07545471,32.93798
1189,0.050842285,36.589375
1190,0.5259247,40.64921
1191,1.5000763,45.107353
1192,2.9697113,49.952606
1193,4.9315643,55.17293
1194,7.3824005,60.755306
1195,10.31311,66.68563
1196,13.71991,72.94925
1197,17.590149,79.53029
1198,21.916107,86.41252
1199,26.689987,93.57879
1200,31.894089,101.01088
1201,37.521713,108.69053
1202,43.55194,116.598175
1203,49.973022,124.714424
1204,56.773163,133.01903
1205,63.927094,141.4908
1206,71.425644,150.10898
1207,79.24092,158.85158
1208,87.35789,167.69722
1209,95.76149,176.62381
1210,104.42045,185.6085
1211,113.32369,194.62941
1212,122.43812,203.66339
1213,131.7463,212.68843
1214,141.23085,221.682
1215,150.85648,230.62103
1216,160.61086,239.48376
1217,170.45773,248.24744
1218,180.3784,256.89075
1219,190.3542,265.39212
1220,200.348,273.72968
1221,210.34706,281.8832
1222,220.31415,289.8317
1223,230.23048,297.55588
1224,240.07727,305.0365
1225,249.8179,312.2542
1226,259.4399,319.1916
1227,268.90753,325.83066
1228,278.20297,332.15546
1229,287.30853,338.1502
1230,296.19037,343.7993
1231,304.8371,349.08917
1232,313.21655,354.00607
1233,321.31317,358.53824
1234,329.1114,362.67438
1235,336.58218,366.40363
1236,343.716,369.7171
1237,350.48633,372.6061
1238,356.8807,375.06387
1239,362.88672,377.08423
1240,368.48196,378.66174
1241,373.65936,379.79282
1242,378.3996,380.47433
1243,382.69415,380.70486
1244,386.53455,380.48386
1245,389.90637,379.81158
1246,392.80542,378.68997
1247,395.2209,377.12158
1248,397.1486,375.11053
1249,398.58453,372.66187
1250,399.52332,369.7816
1251,399.96375,366.47696
1252,399.90424,362.75623
1253,399.34528,358.6287
1254,398.2875,354.1046
1255,396.73486,349.1954
1256,394.68933,343.91324
1257,392.1585,338.27145
1258,389.1476,332.28403
1259,385.66193,325.96585
1260,381.7144,319.33298
1261,377.31006,312.4017
1262,372.4653,305.18967
1263,367.1897,297.7146
1264,361.4928,289.99515
1265,355.3958,282.05096
1266,348.9065,273.90155
1267,342.04904,265.5677
1268,334.83673,257.06976
1269,327.2828,248.42899
1270,319.41544,239.66745
1271,311.24466,230.80656
1272,302.80084,221.869
1273,294.10025,212.87657
1274,285.159,203.85173
1275,276.0104,194.8176
1276,266.66617,185.79617
1277,257.161,176.81062
1278,247.51308,167.88281
1279,237.74043,159.035
1280,227.87943,150.28996
1281,217.9427,141.66891
1282,207.9672,133.19405
1283,197.97177,124.88592
1284,187.97533,116.76527
1285,178.01503,108.85304
1286,168.10364,101.16838
1287,158.27798,93.73113
1288,148.55658,86.559265
1289,138.95787,79.67068
1290,129.51756,73.08321
1291,120.24774,66.81273
1292,111.18287,60.875504
1293,102.33989,55.285797
1294,93.73572,50.057564
1295,85.40234,45.204433
1296,77.35045,40.738003
1297,69.60997,36.669952
1298,62.195236,33.009953
1299,55.120544,29.767143
1300,48.412247,26.9501
1301,42.07892,24.565418
1302,36.144073,22.619474
1303,30.618591,21.116743
1304,25.513306,20.060984
1305,20.847153,19.455172
1306,16.626144,19.300508
1307,12.865967,19.59766
1308,9.573288,20.345627
1309,6.754776,21.542553
1310,4.4209137,23.18564
1311,2.5746765,25.27061
1312,1.2229309,27.792383
1313,0.3677826,30.744545
1314,0.011306763,34.119743
1315,0.15483093,37.909573
1316,0.79815674,42.104546
1317,1.9389038,46.694145
1318,3.5744476,51.66695
1319,5.702179,57.010563
1320,8.314163,62.7115
1321,11.407043,68.755646
1322,14.969345,75.127716
1323,18.993896,81.81198
1324,23.473541,88.79177
1325,28.391571,96.049355
1326,33.74173,103.56689
1327,39.504105,111.32523
1328,45.66745,119.30537
1329,52.22046,127.487366
1330,59.13878,135.85036
1331,66.41354,144.37387
1332,74.017715,153.03613
1333,81.93662,161.81596
1334,90.15559,170.69145
1335,98.64404,179.63988
1336,107.39113,188.6394
1337,116.3643,197.667
1338,125.54642,206.70065
1339,134.92032,215.71779
1340,144.45114,224.69528
1341,154.12668,233.6113
1342,163.91095,242.44292
1343,173.78539,251.1687
1344,183.73138,259.76685
1345,193.71199,268.21524
1346,203.7144,276.4934
1347,213.70143,284.58
1348,223.65424,292.45538
1349,233.55396,300.09998
1350,243.3638,307.49396
1351,253.0712,314.6195
1352,262.64,321.45822
1353,272.05237,327.9936
1354,281.2903,334.2093
1355,290.31946,340.08917
1356,299.12827,345.61914
1357,307.684,350.7848
1358,315.97067,355.57376
1359,323.9724,359.9741
1360,331.6595,363.97427
1361,339.02203,367.56482
1362,346.03265,370.73627
1363,352.67847,373.4811
1364,358.94653,375.7925
1365,364.81357,377.6643
1366,370.27206,379.09216
1367,375.30173,380.07217
1368,379.89343,380.60223
1369,384.03812,380.681
1370,387.72034,380.308
1371,390.93542,379.48444
1372,393.6714,378.21213
1373,395.92352,376.49445
1374,397.68707,374.33566
1375,398.95557,371.74106
1376,399.72733,368.71722
1377,399.9995,365.27167
1378,399.77203,361.41306
1379,399.04486,357.15094
1380,397.8207,352.49606
1381,396.10117,347.46
1382,393.8926,342.05542
1383,391.19965,336.29575
1384,388.02698,330.1953
1385,384.3863,323.76956
1386,380.28238,317.03436
1387,375.7304,310.00684
1388,370.73944,302.70425
1389,365.31848,295.1448
1390,359.48767,287.34772
1391,353.25452,279.33218
1392,346.64215,271.1186
1393,339.66345,262.7271
1394,332.33127,254.17863
1395,324.67285,245.49501
1396,316.698,236.69748
1397,308.4364,227.80853
1398,299.9039,218.84988
1399,291.11636,209.84389
1400,282.1065,200.81363
1401,272.8858,191.7811
1402,263.4886,182.76947
1403,253.93279,173.80067
1404,244.23627,164.89711
1405,234.43513,156.08165
1406,224.5419,147.37572
1407,214.59338,138.8017
1408,204.6084,130.3804
1409,194.60579,122.13284
1410,184.62277,114.0803
1411,174.6721,106.24225
1412,164.79082,98.63894
1413,154.99747,91.288734
1414,145.3107,84.209984
1415,135.76648,77.42102
1416,126.37708,70.938194
1417,117.177376,64.77832
1418,108.18459,58.956207
1419,99.41591,53.48639
1420,90.90394,48.383106
1421,82.65957,43.658573
1422,74.713455,39.32513
1423,67.08035,35.393097
1424,59.774963,31.87229
1425,52.824448,28.771992
1426,46.2377,26.099497
1427,40.039246,23.86192
1428,34.240417,22.064438
1429,28.852524,20.711552
1430,23.895615,19.807001
1431,19.376053,19.352713
1432,15.310623,19.35012
1433,11.706589,19.798954
1434,8.571213,20.698107
1435,5.9161224,22.04554
1436,3.7447205,23.837698
1437,2.065094,26.070251
1438,0.8799591,28.737494
1439,0.1920166,31.832777
1440,0.0037994385,35.34842
1441,0.31558228,39.2756
1442,1.1261902,43.604492
1443,2.4336395,48.324306
1444,4.235901,53.42327
1445,6.5262756,58.888535
1446,9.301849,64.706566
1447,12.552292,70.86265
1448,16.271027,77.34158
1449,20.451447,84.1272
1450,25.078018,91.202286
1451,30.144821,98.54942
1452,35.63301,106.14994
1453,41.5318,113.98516
1454,47.830475,122.03553
1455,54.50557,130.28053
1456,61.548553,138.69998
1457,68.93324,147.27235
1458,76.64536,155.9767
1459,84.670654,164.7913
1460,92.979256,173.6936
1461,101.56053,182.66187
1462,110.38258,191.67313
1463,119.42852,200.70541
1464,128.68146,209.73618
1465,138.10696,218.74226
1466,147.693,227.70175
1467,157.4039,236.59161
1468,167.22122,245.39026
1469,177.1265,254.07571
1470,187.08289,262.62564
1471,197.07765,271.0193
1472,207.07364,279.23502
1473,217.05194,287.25296
1474,226.9937,295.05307
1475,236.86194,302.61523
1476,246.64401,309.92117
1477,256.30356,316.95197
1478,265.82245,323.69067
1479,275.18256,330.12048
1480,284.3491,336.2247
1481,293.31027,341.98868
1482,302.0328,347.3974
1483,310.50046,352.43793
1484,318.69696,357.09766
1485,326.5918,361.3644
1486,334.17496,365.22803
1487,341.41815,368.67838
1488,348.30804,371.7073
1489,354.83133,374.30722
1490,360.96368,376.47122
1491,366.69727,378.19427
1492,372.0108,379.4717
1493,376.8946,380.30072
1494,381.33905,380.6792
1495,385.3276,380.6059
1496,388.85516,380.08127
1497,391.90866,379.10638
1498,394.48267,377.68393
1499,396.57196,375.8174
1500,398.16876,373.51135
1501,399.271,370.77167
1502,399.87454,367.6051
1503,399.97876,364.01962
1504,399.583,360.0242
1505,398.68872,355.62878
1506,397.29706,350.84436
1507,395.4132,345.68295
1508,393.04114,340.15738
1509,390.18494,334.28143
1510,386.85522,328.06995
1511,383.0562,321.53827
1512,378.80203,314.70294
1513,374.1012,307.5808
1514,368.9621,300.18967
1515,363.40393,292.5483
1516,357.43378,284.67548
1517,351.0738,276.59125
1518,344.33643,268.3154
1519,337.234,259.86862
1520,329.79297,251.27248
1521,322.02286,242.54799
1522,313.95255,233.71745
1523,305.59753,224.80246
1524,296.9734,215.82524
1525,288.11215,206.80878
1526,279.02518,197.77507
1527,269.74628,188.7473
1528,260.2931,179.74742
1529,250.68341,170.7979
1530,240.95291,161.92172
1531,231.11409,153.14049
1532,221.20349,144.47676
1533,211.23993,135.95157
1534,201.24219,127.58619
1535,191.24744,119.40219
1536,181.26846,111.41938
1537,171.3424,103.65837
1538,161.48793,96.137924
1539,151.72374,88.87681
1540,142.08615,81.89382
1541,132.5875,75.20579
1542,123.2631,68.83005
1543,114.13041,62.78193
1544,105.20686,57.076546
1545,96.52566,51.728733
1546,88.09789,46.751297
1547,79.954926,42.157234
1548,72.11185,37.957493
1549,64.58377,34.162567
1550,57.398697,30.782433
1551,50.565826,27.82507
1552,44.110565,25.298319
1553,38.044754,23.208069
1554,32.38022,21.559547
1555,27.138,20.357252
1556,22.32486,19.603836
1557,17.958649,19.3015
1558,14.047241,19.450706
1559,10.598434,20.051092
1560,7.6250305,21.101389
1561,5.1308594,22.598763
1562,3.1251984,24.53964
1563,1.6113892,26.919025
1564,0.59272766,29.730986
1565,0.07299805,32.96857
1566,0.052886963,36.623634
1567,0.5324707,40.687054
1568,1.510376,45.148678
1569,2.985199,49.99738
1570,4.951462,55.22096
1571,7.406662,60.806458
1572,10.34166,66.73977
1573,13.750473,73.006226
1574,17.62709,79.5902
1575,21.957092,86.47499
1576,26.734955,93.64365
1577,31.942886,101.07795
1578,37.570663,108.75963
1579,43.608047,116.66952
1580,50.032578,124.78747
1581,56.836014,133.09357
1582,63.993103,141.56662
1583,71.489944,150.18591
1584,79.312706,158.9299
1585,87.432304,167.77626
1586,95.83833,176.70337
1587,104.49955,185.68839
1588,113.39934,194.70938
1589,122.52112,203.74384
1590,131.83095,212.7686
1591,141.31693,221.76169
1592,150.94376,230.7
1593,160.69315,239.56181
1594,170.54678,248.325
1595,180.46802,256.96704
1596,190.44414,265.46695
1597,200.43805,273.80283
1598,210.43088,281.95447
1599,220.40372,289.90155
1600,230.31947,297.62354
1601,240.16548,305.10178
1602,249.9051,312.31693
1603,259.52005,319.2516
1604,268.99203,325.88846
1605,278.28583,332.2103
1606,287.38953,338.2019
1607,296.2693,343.84775
1608,304.90857,349.13425
1609,313.29077,354.04822
1610,321.38474,358.57684
1611,329.1801,362.70932
1612,336.64795,366.4348
1613,343.77435,369.74448
1614,350.54565,372.63004
1615,356.93655,375.08386
1616,362.93893,377.10022
1617,368.53046,378.6737
1618,373.701,379.80072
1619,378.4403,380.4785
1620,382.73077,380.70496
1621,386.567,380.4799
1622,389.9346,379.80356
1623,392.8277,378.6779
1624,395.24042,377.10568
1625,397.16373,375.09073
1626,398.5952,372.63818
1627,399.5295,369.75406
1628,399.96533,366.4457
1629,399.90143,362.7213
1630,399.33795,358.5902
1631,398.27573,354.06268
1632,396.71863,349.15012
1633,394.6701,343.86472
1634,392.1335,338.2197
1635,389.11835,332.22928
1636,385.62842,325.90826
1637,381.67676,319.2727
1638,377.2712,312.33896
1639,372.41968,305.12427
1640,367.14026,297.647
1641,361.43964,289.92554
1642,355.3391,281.97955
1643,348.85046,273.8285
1644,341.98566,265.4927
1645,334.7702,256.9935
1646,327.21335,248.35165
1647,319.3432,239.58926
1648,311.1749,230.72772
1649,302.72363,221.78915
1650,294.02078,212.79643
1651,285.07755,203.7715
1652,275.92712,194.7375
1653,266.58704,185.71643
1654,257.07474,176.7308
1655,247.42561,167.80371
1656,237.65201,158.95683
1657,227.79027,150.21294
1658,217.8591,141.59323
1659,207.87723,133.11925
1660,197.88174,124.81281
1661,187.88547,116.694046
1662,177.92555,108.78388
1663,168.02078,101.10148
1664,158.18994,93.666
1665,148.46957,86.49667
1666,138.87213,79.6108
1667,129.43332,73.02621
1668,120.17077,66.75875
1669,111.1022,60.82408
1670,102.26132,55.237625
1671,93.65945,50.01277
1672,85.32857,45.163143
1673,77.28416,40.70032
1674,69.5417,36.635452
1675,62.12999,32.979206
1676,55.058502,29.74023
1677,48.353546,26.92709
1678,42.02742,24.546371
1679,36.09247,22.604034
1680,30.57074,21.10532
1681,25.469315,20.053608
1682,20.807144,19.451862
1683,16.592651,19.301275
1684,12.834213,19.602234
1685,9.545792,20.354237
1686,6.731598,21.555176
1687,4.4020996,23.20224
1688,2.561264,25.291145
1689,1.2130127,27.816689
1690,0.36235046,30.772654
1691,0.010375977,34.151577
1692,0.15838623,37.945045
1693,0.8059387,42.143566
1694,1.9514313,46.736637
1695,3.5914154,51.712772
1696,5.722824,57.05959
1697,8.339859,62.763676
1698,11.43602,68.81077
1699,15.003555,75.185745
1700,19.032211,81.87266
1701,23.514435,88.854935
1702,28.437836,96.115
1703,33.790085,103.63469
1704,39.55783,111.39521
1705,45.72473,119.37715
1706,52.279083,127.56076
1707,59.202713,135.9254
1708,66.4783,144.45015
1709,74.087654,153.1137
1710,82.009315,161.89436
1711,90.228294,170.7705
1712,98.72167,179.71964
1713,107.46823,188.71942
1714,116.4461,197.74733
1715,125.63,206.7808
1716,135.00258,215.79756
1717,144.53763,224.77478
1718,154.21133,233.69002
1719,163.99951,242.521
1720,173.87463,251.24562
1721,183.81808,259.8424
1722,193.80199,268.28955
1723,203.80138,276.56595
1724,213.79126,284.6509
1725,223.74364,292.52423
1726,233.63971,300.16653
1727,243.45169,307.5584
1728,253.15504,314.6814
1729,262.72552,321.51767
1730,272.13635,328.05014
1731,281.36978,334.26282
1732,290.39978,340.13983
1733,299.2038,345.6665
1734,307.75983,350.82904
1735,316.044,355.61453
1736,324.04065,360.01126
1737,331.72723,364.00803
1738,339.08453,367.5948
1739,346.09418,370.7626
1740,352.73657,373.50357
1741,358.99933,375.81104
1742,364.86456,377.67902
1743,370.3177,379.10284
1744,375.34503,380.07898
1745,379.93274,380.60498
1746,384.07214,380.67966
1747,387.7514,380.3027
1748,390.9613,379.47507
1749,393.69385,378.19882
1750,395.9416,376.47717
1751,397.70026,374.31448
1752,398.96475,371.71606
1753,399.73187,368.68845
1754,399.9997,365.2392
1755,399.7677,361.37692
1756,399.03632,357.1113
1757,397.80743,352.45297
1758,396.08405,347.4136
1759,393.8705,342.0058
1760,391.17322,336.24307
1761,387.9973,330.13974
1762,384.35144,323.71112
1763,380.2447,316.9733
1764,375.68744,309.94315
1765,370.69254,302.6382
1766,365.2695,295.07663
1767,359.43335,287.27744
1768,353.1986,279.26013
1769,346.58093,271.04474
1770,339.599,262.65186
1771,332.26605,254.1022
1772,324.60245,245.41733
1773,316.62735,236.61897
1774,308.36075,227.72916
1775,299.82587,218.7701
1776,291.0389,209.7639
1777,282.02438,200.73334
1778,272.8048,191.701
1779,263.4032,182.68947
1780,253.84608,173.72128
1781,244.15144,164.81853
1782,234.34644,156.00377
1783,224.45558,147.29903
1784,214.50359,138.72607
1785,204.51837,130.30635
1786,194.51884,122.06058
1787,184.533,114.00966
1788,174.58583,106.17374
1789,164.70218,98.57239
1790,154.90976,91.22463
1791,145.22702,84.14851
1792,135.68123,77.362015
1793,126.29621,70.8821
1794,117.095436,64.72498
1795,108.104614,58.906048
1796,99.34074,53.43954
1797,90.828476,48.33941
1798,82.589134,43.618404
1799,74.64329,39.288322
1800,67.01309,35.359997
1801,59.71295,31.842987
1802,52.763504,28.746325
1803,46.182114,26.077751
1804,39.985214,23.843933
1805,34.19005,22.050457
1806,28.807526,20.701614
1807,23.852951,19.800959
1808,19.338715,19.350737
1809,15.276093,19.352072
1810,11.67627,19.804958
1811,8.546036,20.708145
1812,5.894394,22.059492
1813,3.7279816,23.855614
1814,2.0522003,26.092018
1815,0.87153625,28.763111
1816,0.18821716,31.862175
1817,0.0043792725,35.381504
1818,0.32048035,39.312294
1819,1.1357574,43.64472
1820,2.447647,48.36794
1821,4.253723,53.470192
1822,6.549118,58.93869
1823,9.3280945,64.75976
1824,12.58371,70.91883
1825,16.306625,77.40051
1826,20.489792,84.18873
1827,25.121704,91.26639
1828,30.190765,98.6158
1829,35.68431,106.21859
1830,41.58676,114.05574
1831,47.886932,122.10785
1832,54.567368,130.35461
1833,61.611343,138.77542
1834,69.00125,147.34921
1835,76.716255,156.05453
1836,84.74172,164.8699
1837,93.05532,173.77304
1838,101.63626,182.74168
1839,110.46308,191.7534
1840,119.51094,200.78566
1841,128.76273,209.8162
1842,138.1926,218.82214
1843,147.77695,227.78099
1844,157.49188,236.67033
1845,167.31004,245.46794
1846,177.2129,254.15216
1847,187.17274,262.701
1848,197.16463,271.09302
1849,207.16362,279.30728
1850,217.14165,287.32324
1851,227.07988,295.1212
1852,236.95042,302.68137
1853,246.72859,309.98483
1854,256.38995,317.0133
1855,265.90747,323.74924
1856,275.26318,330.1761
1857,284.43073,336.27753
1858,293.3872,342.03827
1859,302.11023,347.44397
1860,310.5755,352.48105
1861,318.76694,357.1372
1862,326.6615,361.40057
1863,334.23944,365.2605
1864,341.4818,368.70728
1865,348.36847,371.73233
1866,354.88638,374.3283
1867,361.0171,376.48853
1868,366.74533,378.20758
1869,372.0567,379.48117
1870,376.93658,380.30612
1871,381.37573,380.6805
1872,385.36145,380.60327
1873,388.8838,380.07462
1874,391.934,379.09583
1875,394.50366,377.66937
1876,396.588,375.7989
1877,398.1809,373.48898
1878,399.27838,370.74545
1879,399.87772,367.57513
1880,399.97745,363.98596
1881,399.5774,359.9869
1882,398.6784,355.58798
1883,397.2828,350.80017
1884,395.39404,345.63544
1885,393.0176,340.10672
1886,390.15802,334.22775
1887,386.8231,328.01328
1888,383.02112,321.47885
1889,378.76166,314.6408
1890,374.05685,307.5163
1891,368.91553,300.12292
1892,363.352,292.4793
1893,357.3801,284.60458
1894,351.01477,276.51843
1895,344.2741,268.24106
1896,337.17072,259.79297
1897,329.7245,251.19547
1898,321.95395,242.47003
1899,313.87854,233.6385
1900,305.52106,224.72296
1901,296.8973,215.74539
1902,288.0313,206.72852
1903,278.94525,197.69487
1904,269.66187,188.66705
1905,260.20724,179.66763
1906,250.59926,170.7188
1907,240.86479,161.8432
1908,231.02815,153.06303
1909,221.11397,144.40025
1910,211.15004,135.87651
1911,201.15521,127.512794
1912,191.15749,119.33031
1913,181.18187,111.34951
1914,171.2533,103.59036
1915,161.39957,96.072266
1916,151.63933,88.813675
1917,141.99997,81.833046
1918,132.5056,75.147835
1919,123.179955,68.77475
1920,114.0491,62.729725
1921,105.13029,57.027573
1922,96.44862,51.68283
1923,88.02581,46.708855
1924,79.88292,42.11808
1925,72.04263,37.921986
1926,64.519775,34.130802
1927,57.335587,30.754251
1928,50.50804,27.80077
1929,44.05417,25.27774
1930,37.991943,23.191471
1931,32.332764,21.546974
1932,27.092743,20.348555
1933,22.284943,19.599201
1934,17.921387,19.300785
1935,14.014114,19.454052
1936,10.570496,20.05849
1937,7.6004333,21.112715
1938,5.111313,22.614079
1939,3.109375,24.55883
1940,1.5999908,26.942104
1941,0.5860443,29.757895
1942,0.07058716,32.99921
1943,0.054901123,36.657948
1944,0.53904724,40.724953
1945,1.5214386,45.190052
1946,3.000183,50.042118
1947,4.97139,55.269
1948,7.43013,60.857624
1949,10.3702545,66.794014
1950,13.783295,73.063324
1951,17.662811,79.65
1952,21.998138,86.53747
1953,26.778412,93.7085
1954,31.991714,101.14519
1955,37.623215,108.82891
1956,43.662292,116.740654
1957,50.092163,124.86048
1958,56.89679,133.16808
1959,64.05911,141.64267
1960,71.558945,150.26306
1961,79.38209,159.00797
1962,87.50674,167.8553
1963,95.9126,176.78293
1964,104.57867,185.76852
1965,113.48051,194.78963
1966,122.60131,203.82397
1967,131.91559,212.84872
1968,141.40009,221.84131
1969,151.03105,230.77922
1970,160.78143,239.64014
1971,170.63283,248.40222
1972,180.55762,257.04327
1973,190.53102,265.5417
1974,200.52809,273.8762
1975,210.52078,282.026
1976,220.49023,289.97104
1977,230.40848,297.69116
1978,240.25069,305.167
1979,249.99228,312.37994
1980,259.60602,319.31192
1981,269.07367,325.94592
1982,278.36865,332.26505
1983,287.46777,338.25354
1984,296.3482,343.89642
1985,304.98523,349.17957
1986,313.36243,354.09006
1987,321.4563,358.61536
1988,329.24652,362.74414
1989,336.71368,366.4661
1990,343.83694,369.77194
1991,350.60287,372.65363
1992,356.99234,375.1037
1993,362.98935,377.1161
1994,368.57892,378.68576
1995,373.7456,379.80878
1996,378.47955,380.48245
1997,382.76736,380.705
1998,386.5983,380.47583
1999,389.96277,379.79556
2000,392.85156,378.6659
2001,395.25925,377.08972
2002,397.17883,375.0709
2003,398.60547,372.61444
2004,399.53564,369.72656
2005,399.96698,366.41446
2006,399.89868,362.6864
2007,399.33063,358.5517
2008,398.2643,354.0207
2009,396.7024,349.10477
2010,394.6494,343.81616
2011,392.10934,338.16803
2012,389.08905,332.17456
2013,385.59604,325.85074
2014,381.6391,319.21237
2015,377.2295,312.27606
2016,372.3756,305.05902
2017,367.0908,297.57944
2018,361.3883,289.85596
2019,355.28235,281.90793
2020,348.79028,273.75522
2021,341.92438,265.418
2022,334.70367,256.9173
2023,327.1462,248.27435
2024,319.27094,239.51083
2025,311.10004,230.6486
2026,302.649,221.70956
2027,293.9413,212.71631
2028,284.9988,203.69131
2029,275.8438,194.65715
2030,266.50214,185.63641
2031,256.99136,176.65135
2032,247.33813,167.72469
2033,237.56657,158.87875
2034,227.70111,150.13567
2035,217.76942,141.51729
2036,207.7903,133.04483
2037,197.79172,124.73978
2038,187.79863,116.622894
2039,177.83606,108.714485
2040,167.93192,101.03431
2041,158.10489,93.60125
2042,148.38258,86.43418
2043,138.78932,79.551025
2044,129.34906,72.969
2045,120.088234,66.70455
2046,111.0243,60.773033
2047,102.182785,55.18956
2048,93.58579,49.968094
2049,85.254814,45.121685
2050,77.21307,40.66245
2051,69.475784,36.601273
2052,62.064774,32.948547
2053,54.99858,29.713411
2054,48.29486,26.903948
2055,41.972214,24.52718
2056,36.04265,22.588842
2057,30.522919,21.093975
2058,25.42685,20.046314
2059,20.767181,19.448479
2060,16.556763,19.301958
2061,12.803574,19.606981
2062,9.518326,20.362915
2063,6.709244,21.567871
2064,4.3833313,23.21883
2065,2.546936,25.311663
2066,1.2034607,27.841078
2067,0.3569641,30.800814
2068,0.009506226,34.183464
2069,0.1619873,37.98057
2070,0.8137512,42.18264
2071,1.963562,46.779182
2072,3.608429,51.758698
2073,5.744217,57.108727
2074,8.365601,62.815895
2075,11.465027,68.86593
2076,15.036621,75.24381
2077,19.070572,81.9335
2078,23.556824,88.918274
2079,28.48413,96.18066
2080,33.838486,103.7025
2081,39.609787,111.46517
2082,45.782043,119.44911
2083,52.339798,127.634346
2084,59.266663,136.00041
2085,66.54306,144.52638
2086,74.15526,153.1912
2087,82.08202,161.97296
2088,90.303566,170.84973
2089,98.799324,179.79932
2090,107.54535,188.79933
2091,116.52513,197.82756
2092,125.71358,206.86118
2093,135.08774,215.8776
2094,144.62415,224.85425
2095,154.29602,233.7687
2096,164.08508,242.59901
2097,173.96391,251.32278
2098,183.90782,259.9182
2099,193.89197,268.3638
2100,203.88834,276.63846
2101,213.87804,284.72183
2102,223.83304,292.59335
2103,233.72845,300.2334
2104,243.53957,307.62286
2105,253.23889,314.74326
2106,262.8081,321.5771
2107,272.22034,328.10696
2108,281.45203,334.3166
2109,290.48007,340.19043
2110,299.27933,345.7138
2111,307.8331,350.87323
2112,316.1173,355.65546
2113,324.11127,360.0486
2114,331.79498,364.04166
2115,339.14703,367.62463
2116,346.15356,370.78882
2117,352.7947,373.5261
2118,359.0539,375.8296
2119,364.91553,377.69354
2120,370.36328,379.11334
2121,375.38687,380.0856
2122,379.97205,380.60767
2123,384.10736,380.6783
2124,387.7824,380.29733
2125,390.98712,379.46567
2126,393.71548,378.1855
2127,395.9596,376.45993
2128,397.71387,374.29333
2129,398.97388,371.69107
2130,399.73633,368.65964
2131,399.99982,365.2067
2132,399.76334,361.34082
2133,399.0275,357.07166
2134,397.79413,352.4099
2135,396.0669,347.36722
2136,393.84912,341.95615
2137,391.14676,336.19028
2138,387.96655,330.084
2139,384.3165,323.65262
2140,380.20697,316.9122
2141,375.6458,309.87946
2142,370.6456,302.57208
2143,365.21878,295.00836
2144,359.37897,287.2072
2145,353.1427,279.18814
2146,346.52173,270.97098
2147,339.53452,262.57645
2148,332.1985,254.02556
2149,324.53198,245.33968
2150,316.5567,236.54053
2151,308.28763,227.64984
2152,299.74786,218.6901
2153,290.95874,209.68367
2154,281.94226,200.65312
2155,272.72375,191.621
2156,263.3207,182.6096
2157,253.75937,173.6417
2158,244.06363,164.73975
2159,234.25774,155.926
2160,224.36925,147.22246
2161,214.41682,138.6506
2162,204.42836,130.23213
2163,194.42883,121.988106
2164,184.44324,113.93913
2165,174.49954,106.10535
2166,164.61656,98.50599
2167,154.82204,91.16038
2168,145.14044,84.08687
2169,135.59598,77.30314
2170,126.215355,70.82616
2171,117.01629,64.67181
2172,108.02466,58.85576
2173,99.26294,53.392548
2174,90.75305,48.295837
2175,82.51873,43.57837
2176,74.57553,39.251663
2177,66.94585,35.32679
2178,59.64879,31.81356
2179,52.702576,28.720757
2180,46.126526,26.05611
2181,39.933044,23.826065
2182,34.13971,22.0364
2183,28.760986,20.691587
2184,23.810333,19.794989
2185,19.301422,19.34884
2186,15.242767,19.35411
2187,11.645966,19.810926
2188,8.52002,20.718145
2189,5.872711,22.073494
2190,3.7112885,23.873583
2191,2.039795,26.11384
2192,0.8631592,28.788734
2193,0.18432617,31.891579
2194,0.004989624,35.414608
2195,0.3254242,39.34901
2196,1.1450348,43.684963
2197,2.4617157,48.411625
2198,4.272217,53.517174
2199,6.571991,58.988834
2200,9.35437,64.81293
2201,12.61409,70.97499
2202,16.34224,77.45954
2203,20.52951,84.25036
2204,25.165405,91.33046
2205,30.23674,98.68214
2206,35.733917,106.287186
2207,41.641724,114.126434
2208,47.945404,122.1803
2209,54.62918,130.42862
2210,61.67415,138.85078
2211,69.067,147.42596
2212,76.78716,156.13252
2213,84.81532,164.94868
2214,93.131424,173.85239
2215,101.712006,182.8214
2216,110.54087,191.83356
2217,119.59336,200.86607
2218,128.84686,209.89638
2219,138.27823,218.90189
2220,147.86093,227.86008
2221,157.57687,236.74889
2222,167.39886,245.54578
2223,177.30237,254.22878
2224,187.26259,262.77615
2225,197.2516,271.16656
2226,207.25055,279.37933
2227,217.23135,287.39365
2228,227.16908,295.18945
2229,237.03891,302.74728
2230,246.81317,310.04822
2231,256.4734,317.07437
2232,265.9925,323.80783
2233,275.34656,330.23178
2234,284.51233,336.33014
2235,293.4641,342.08768
2236,302.18503,347.4903
2237,310.6505,352.52423
2238,318.83936,357.17685
2239,326.73117,361.43658
2240,334.3039,365.29276
2241,341.54327,368.73596
2242,348.42883,371.7574
2243,354.94333,374.34943
2244,361.0705,376.50568
2245,366.79333,378.2207
2246,372.10107,379.49045
2247,376.97855,380.3115
2248,381.41364,380.68185
2249,385.39523,380.60056
2250,388.91235,380.0678
2251,391.95844,379.08508
2252,394.5246,377.65472
2253,396.60455,375.7803
2254,398.193,373.4665
2255,399.28577,370.71912
2256,399.88074,367.54504
2257,399.97607,363.9522
2258,399.57153,359.94955
2259,398.66806,355.54712
2260,397.2685,350.75592
2261,395.37543,345.5879
2262,392.99402,340.05597
2263,390.1301,334.17398
2264,386.79092,327.95667
2265,382.98602,321.41956
2266,378.72266,314.57883
2267,374.01248,307.45175
2268,368.8673,300.05612
2269,363.30005,292.41046
2270,357.32642,284.53384
2271,350.95776,276.44577
2272,344.21173,268.1667
2273,337.1052,259.71722
2274,329.65594,251.11858
2275,321.88498,242.39221
2276,313.807,233.55968
2277,305.44458,224.64331
2278,296.81854,215.66539
2279,287.95044,206.64838
2280,278.86536,197.61482
2281,269.58032,188.58699
2282,260.12137,179.58772
2283,250.51215,170.63956
2284,240.77664,161.76483
2285,230.94223,152.98575
2286,221.02747,144.32393
2287,211.06015,135.80132
2288,201.06517,127.439224
2289,191.06754,119.25856
2290,181.09528,111.279785
2291,171.16722,103.522514
2292,161.31123,96.00644
2293,151.55197,88.75035
2294,141.91382,81.77239
2295,132.42374,75.09001
2296,123.099655,68.719604
2297,113.96781,62.67738
2298,105.051025,56.978443
2299,96.371605,51.637043
2300,87.95374,46.666534
2301,79.81337,42.079067
2302,71.97345,37.886368
2303,64.45355,34.098915
2304,57.272507,30.72618
2305,50.45027,27.776588
2306,43.999725,25.257292
2307,37.939148,23.174799
2308,32.283707,21.534317
2309,27.0475,20.339941
2310,22.245056,19.594658
2311,17.885406,19.300169
2312,13.981018,19.457367
2313,10.541641,20.065851
2314,7.5758514,21.124096
2315,5.0917816,22.629456
2316,3.0941162,24.578087
2317,1.5886536,26.965195
2318,0.57917786,29.784811
2319,0.06820679,33.02988
2320,0.05697632,36.69229
2321,0.54545593,40.762882
2322,1.5325317,45.231483
2323,3.015747,50.086926
2324,4.9913635,55.31706
2325,7.453644,60.908802
2326,10.397919,66.84827
2327,13.816162,73.12053
2328,17.69983,79.70991
2329,22.0392,86.59992
2330,26.821915,93.77334
2331,32.038925,101.21239
2332,37.675797,108.89832
2333,43.71846,116.81194
2334,50.15178,124.93344
2335,56.95755,133.24252
2336,64.122925,141.71863
2337,71.627975,150.34038
2338,79.45391,159.08621
2339,87.58119,167.93425
2340,95.98689,176.86237
2341,104.65512,185.84853
2342,113.56169,194.87001
2343,122.68434,203.90427
2344,132.00026,212.92871
2345,141.48325,221.92076
2346,151.11539,230.85826
2347,160.86972,239.71858
2348,170.7219,248.47957
2349,180.64723,257.11932
2350,190.6179,265.61624
2351,200.61507,273.9494
2352,210.6107,282.0977
2353,220.5798,290.0407
2354,230.49747,297.7586
2355,240.33589,305.2321
2356,250.0765,312.44278
2357,259.69196,319.37238
2358,269.15814,326.00354
2359,278.4515,332.3197
2360,287.546,338.30505
2361,296.42444,343.94495
2362,305.06183,349.225
2363,313.43658,354.13202
2364,321.52783,358.65375
2365,329.3129,362.77887
2366,336.77716,366.4973
2367,343.89948,369.7996
2368,350.6621,372.6774
2369,357.0481,375.12354
2370,363.03973,377.13193
2371,368.62573,378.69772
2372,373.79016,379.81683
2373,378.52017,380.48645
2374,382.80392,380.70493
2375,386.62958,380.4717
2376,389.99,379.7875
2377,392.87543,378.6539
2378,395.27872,377.07373
2379,397.19385,375.05096
2380,398.61572,372.59064
2381,399.54156,369.69897
2382,399.96863,366.38315
2383,399.89578,362.65143
2384,399.32324,358.51318
2385,398.25287,353.97876
2386,396.68665,349.05942
2387,394.62872,343.76752
2388,392.0843,338.1163
2389,389.0597,332.11987
2390,385.5636,325.7932
2391,381.60266,319.15207
2392,377.18774,312.2131
2393,372.32993,304.9937
2394,367.04132,297.5119
2395,361.3369,289.7864
2396,355.22754,281.83636
2397,348.7301,273.6818
2398,341.8609,265.3431
2399,334.6371,256.84116
2400,327.07904,248.19717
2401,319.2011,239.43253
2402,311.02518,230.56937
2403,302.5717,221.62984
2404,293.86182,212.6363
2405,284.92004,203.61125
2406,275.76334,194.57695
2407,266.4172,185.55624
2408,256.90506,176.5717
2409,247.25066,167.64578
2410,237.48114,158.8008
2411,227.61496,150.05855
2412,217.67975,141.44118
2413,207.70033,132.97023
2414,197.70168,124.666885
2415,187.71182,116.55191
2416,177.74962,108.64525
2417,167.84303,100.96699
2418,158.01685,93.53632
2419,148.29561,86.371826
2420,138.70651,79.49141
2421,129.2677,72.91196
2422,120.0057,66.65021
2423,110.94367,60.721825
2424,102.104256,55.14162
2425,93.51215,49.92355
2426,85.18357,45.08037
2427,77.14202,40.624462
2428,69.40758,36.566956
2429,61.999588,32.918
2430,54.93869,29.68671
2431,48.23819,26.880936
2432,41.917053,24.50791
2433,35.99109,22.57356
2434,30.475128,21.082724
2435,25.38443,20.039124
2436,20.728607,19.445202
2437,16.52092,19.302603
2438,12.771896,19.61168
2439,9.4908905,20.371656
2440,6.68692,21.580631
2441,4.3652344,23.235489
2442,2.5326233,25.332184
2443,1.1936188,27.86547
2444,0.35159302,30.82901
2445,0.008682251,34.21539
2446,0.16551208,38.016132
2447,0.82188416,42.221756
2448,1.976181,46.821743
2449,3.625473,51.80459
2450,5.7649384,57.15782
2451,8.390518,62.868145
2452,11.495087,68.92122
2453,15.070892,75.3019
2454,19.108963,81.99424
2455,23.597794,88.9815
2456,28.528885,96.24636
2457,33.88861,103.77052
2458,39.663605,111.53518
2459,45.839386,119.52091
2460,52.398483,127.70775
2461,59.32849,136.07545
2462,66.61014,144.6029
2463,74.22525,153.26877
2464,82.15476,162.05138
2465,90.376305,170.92879
2466,98.87435,179.87907
2467,107.6252,188.87961
2468,116.606964,197.90788
2469,125.79718,206.94133
2470,135.17001,215.95735
2471,144.70773,224.93373
2472,154.38368,233.84773
2473,164.17365,242.67708
2474,174.05318,251.39969
2475,183.99454,259.99374
2476,193.97891,268.4381
2477,203.97836,276.71136
2478,213.96785,284.79282
2479,223.92242,292.66226
2480,233.8142,300.30002
2481,243.62447,307.68735
2482,253.32568,314.80545
2483,262.8936,321.63654
2484,272.3043,328.1635
2485,281.53146,334.3701
2486,290.55765,340.24106
2487,299.35748,345.76144
2488,307.90894,350.91742
2489,316.1906,355.69614
2490,324.17947,360.08566
2491,331.8604,364.07526
2492,339.2117,367.6547
2493,346.215,370.81503
2494,352.85278,373.5484
2495,359.10663,375.84793
2496,364.96472,377.70807
2497,370.4104,379.12402
2498,375.4301,380.0922
2499,380.0113,380.61023
2500,384.1413,380.6768
2501,387.81232,380.29187
2502,391.01385,379.4563
2503,393.73785,378.17215
2504,395.9776,376.44266
2505,397.72696,374.27213
2506,398.98267,371.66605
2507,399.74097,368.6309
2508,399.99994,365.17422
2509,399.75894,361.3047
2510,399.01892,357.032
2511,397.78122,352.36682
2512,396.04913,347.32077
2513,393.82697,341.9065
2514,391.12024,336.13757
2515,387.93683,330.02838
2516,384.2827,323.59415
2517,380.1679,316.85095
2518,375.60275,309.81573
2519,370.59863,302.50607
2520,365.16974,294.94022
2521,359.3264,287.13696
2522,353.08475,279.1159
2523,346.46045,270.89716
2524,339.46997,262.50122
2525,332.1332,253.94913
2526,324.46393,245.26202
2527,316.48352,236.4618
2528,308.2119,227.57051
2529,299.6698,218.61035
2530,290.8813,209.60374
2531,281.8629,200.5729
2532,272.6399,191.54068
2533,263.2353,182.52966
2534,253.67264,173.56238
2535,243.97878,164.66124
2536,234.17203,155.84819
2537,224.27988,147.14554
2538,214.32703,138.57506
2539,204.33835,130.15817
2540,194.34189,121.91593
2541,184.35652,113.86861
2542,174.41025,106.03661
2543,164.52795,98.439545
2544,154.73433,91.09639
2545,145.0568,84.025505
2546,135.51364,77.244255
2547,126.131676,70.76988
2548,116.93437,64.618576
2549,107.94472,58.805714
2550,99.18781,53.345825
2551,90.68021,48.252274
2552,82.44587,43.53806
2553,74.50541,39.21497
2554,66.87865,35.293808
2555,59.586838,31.784382
2556,52.643753,28.695219
2557,46.06903,26.034271
2558,39.87909,23.808187
2559,34.089417,22.022532
2560,28.71608,20.681767
2561,23.769196,19.789064
2562,19.262848,19.346828
2563,15.208313,19.35616
2564,11.615723,19.81703
2565,8.494919,20.728289
2566,5.851822,22.087553
2567,3.6940308,23.891523
2568,2.0269928,26.135689
2569,0.8548279,28.814432
2570,0.18061829,31.921055
2571,0.005630493,35.44777
2572,0.33058167,39.385784
2573,1.1546631,43.725254
2574,2.4758148,48.45532
2575,4.2901154,53.56415
2576,6.594116,59.039043
2577,9.381607,64.86626
2578,12.645584,71.03122
2579,16.377914,77.51852
2580,20.567902,84.31191
2581,25.207657,91.39458
2582,30.284348,98.74868
2583,35.785294,106.355835
2584,41.696747,114.19701
2585,48.001923,122.252594
2586,54.68895,130.50267
2587,61.739197,138.92642
2588,69.135086,147.50279
2589,76.85809,156.21031
2590,84.886444,165.02724
2591,93.20495,173.93178
2592,101.79043,182.90143
2593,110.621414,191.91376
2594,119.67581,200.94626
2595,128.92816,209.97632
2596,138.36096,218.98167
2597,147.94786,227.93954
2598,157.66487,236.82751
2599,167.4877,245.62337
2600,177.38878,254.30511
2601,187.3494,262.85138
2602,197.34163,271.24048
2603,207.34052,279.45148
2604,217.32104,287.46384
2605,227.25526,295.25748
2606,237.12439,302.8133
2607,246.9007,310.1121
2608,256.55978,317.1356
2609,266.07745,323.86624
2610,275.42715,330.2872
2611,284.59116,336.38275
2612,293.5437,342.1374
2613,302.26242,347.53668
2614,310.7255,352.56717
2615,318.90933,357.21628
2616,326.79846,361.47263
2617,334.3706,365.32532
2618,341.60687,368.76474
2619,348.48914,371.7823
2620,354.9983,374.37042
2621,361.12207,376.5229
2622,366.84302,378.2341
2623,372.1469,379.4998
2624,377.02045,380.31677
2625,381.45026,380.683
2626,385.42786,380.59778
2627,388.94193,380.06113
2628,391.98367,379.07437
2629,394.54553,377.64
2630,396.62048,375.76163
2631,398.20465,373.444
2632,399.29333,370.69284
2633,399.88385,367.51505
2634,399.97467,363.91852
2635,399.5658,359.9123
2636,398.65802,355.50635
2637,397.25366,350.7117
2638,395.35617,345.54037
2639,392.97034,340.0053
2640,390.1031,334.12033
2641,386.75983,327.90002
2642,382.9497,321.36005
2643,378.68222,314.51675
2644,373.96808,307.38727
2645,368.8207,299.98938
2646,363.24982,292.34146
2647,357.2708,284.46277
2648,350.89868,276.373
2649,344.14932,268.09235
2650,337.04187,259.6416
2651,329.5897,251.0416
2652,321.8136,242.31404
2653,313.73297,233.48076
2654,305.36804,224.56386
2655,296.7424,215.58562
2656,287.8723,206.5682
2657,278.7826,197.53442
2658,269.4959,188.50685
2659,260.0355,179.50807
2660,250.42798,170.56058
2661,240.69148,161.68642
2662,230.85327,152.90808
2663,220.93793,144.24751
2664,210.97025,135.72636
2665,200.9782,127.36594
2666,190.98064,119.1868
2667,181.00565,111.2097
2668,171.07812,103.4546
2669,161.2229,95.94087
2670,151.46758,88.68732
2671,141.83058,81.71173
2672,132.33899,75.03186
2673,123.01655,68.6644
2674,113.886536,62.625275
2675,104.97448,56.92958
2676,96.29722,51.59126
2677,87.87918,46.62393
2678,79.74142,42.040016
2679,71.9043,37.850975
2680,64.38962,34.067276
2681,57.21158,30.698128
2682,50.390488,27.752188
2683,43.94339,25.236822
2684,37.886414,23.158316
2685,32.236343,21.521862
2686,27.00383,20.331364
2687,22.203796,19.58998
2688,17.84822,19.299557
2689,13.947983,19.460815
2690,10.513794,20.073353
2691,7.55217,21.135525
2692,5.0716095,22.644787
2693,3.078354,24.597364
2694,1.5773468,26.988367
2695,0.57258606,29.811815
2696,0.065963745,33.06062
2697,0.059143066,36.726692
2698,0.552124,40.800865
2699,1.5436707,45.272945
2700,3.0308075,50.131756
2701,5.010681,55.365196
2702,7.478012,60.960144
2703,10.42659,66.9026
2704,13.84906,73.17772
2705,17.735626,79.7698
2706,22.078903,86.66249
2707,26.866974,93.83844
2708,32.087814,101.27972
2709,37.728424,108.96771
2710,43.77275,116.883194
2711,50.209396,125.006584
2712,57.020493,133.31738
2713,64.18901,141.79482
2714,71.69702,150.4177
2715,79.52334,159.16443
2716,87.653145,168.01344
2717,96.063805,176.94237
2718,104.734276,185.92888
2719,113.6429,194.9505
2720,122.76457,203.98468
2721,132.08208,213.00914
2722,141.56937,222.00104
2723,151.2027,230.9379
2724,160.95804,239.79736
2725,170.80794,248.55728
2726,180.73381,257.1961
2727,190.70784,265.69193
2728,200.70511,274.0235
2729,210.7006,282.16998
2730,220.66632,290.11102
2731,230.58342,297.82712
2732,240.42407,305.29865
2733,250.16367,312.50693
2734,259.77786,319.434
2735,269.23978,326.06247
2736,278.5315,332.3761
2737,287.62692,338.35883
2738,296.5033,343.9957
2739,305.13843,349.27264
2740,313.50824,354.17645
2741,321.5969,358.69513
2742,329.38156,362.81714
2743,336.84283,366.53223
2744,343.962,369.83105
2745,350.7193,372.70538
2746,357.10196,375.1483
2747,363.0919,377.15344
2748,368.67413,378.71585
2749,373.83472,379.83163
2750,378.5594,380.49796
2751,382.83917,380.71338
2752,386.66193,380.4772
2753,390.01807,379.79
2754,392.89923,378.65356
2755,395.2975,377.07074
2756,397.20837,375.04553
2757,398.62625,372.583
2758,399.54764,369.68933
2759,399.97018,366.37173
2760,399.89294,362.63858
2761,399.3161,358.49924
2762,398.24097,353.96405
2763,396.6703,349.0444
2764,394.60797,343.75266
2765,392.06006,338.10208
2766,389.0313,332.10678
2767,385.53,325.78183
2768,381.56494,319.14316
2769,377.146,312.20743
2770,372.28577,304.99203
2771,366.99344,297.51495
2772,361.2837,289.79514
2773,355.17075,281.852
2774,348.66992,273.70544
2775,341.7996,265.37607
2776,334.57275,256.88458
2777,327.00952,248.2526
2778,319.12878,239.50182
2779,310.95026,230.65439
2780,302.497,221.73262
2781,293.785,212.7588
2782,284.83853,203.7559
2783,275.68,194.74672
2784,266.33228,185.75415
2785,256.82166,176.80103
2786,247.16612,167.90985
2787,237.39268,159.1036
2788,227.52577,150.40482
2789,217.59006,141.83583
2790,207.61342,133.4187
2791,197.6147,125.17485
2792,187.62195,117.12598
2793,177.66014,109.29309
2794,167.75418,101.696754
2795,157.93181,94.35704
2796,148.21158,87.293175
2797,138.62082,80.52447
2798,129.18349,74.06932
2799,119.92319,67.945526
2800,110.86579,62.170235
2801,102.02842,56.75962
2802,93.43594,51.729755
2803,85.10986,47.095737
2804,77.070984,42.87195
2805,69.341705,39.072056
2806,61.936646,35.708763
2807,54.87671,32.79455
2808,48.17955,30.340979
2809,41.861908,28.358915
2810,35.94133,26.858583
2811,30.429,25.84939
2812,25.340546,25.340546
