no,raw,smooth
0,102.33989,55.285797
1,93.73572,50.057564
2,85.40234,45.204433
3,77.35045,40.738003
4,69.60997,36.669952
5,62.195236,33.009953
6,55.120544,29.767143
7,48.412247,26.9501
8,42.07892,24.565418
9,36.144073,22.619474
10,30.618591,21.116743
11,25.513306,20.060984
12,20.847153,19.455172
13,16.626144,19.300508
14,12.865967,19.59766
15,9.573288,20.345627
16,6.754776,21.542553
17,4.4209137,23.18564
18,2.5746765,25.27061
19,1.2229309,27.792383
20,0.3677826,30.744545
21,0.011306763,34.119743
22,0.15483093,37.909573
23,0.79815674,42.104546
24,1.9389038,46.694145
25,3.5744476,51.66695
26,5.702179,57.010563
27,8.314163,62.7115
28,11.407043,68.755646
29,14.969345,75.127716
30,18.993896,81.81198
31,23.473541,88.79177
32,28.391571,96.049355
33,33.74173,103.56689
34,39.504105,111.32523
35,45.66745,119.30537
36,52.22046,127.487366
37,59.13878,135.85036
38,66.41354,144.37387
39,74.017715,153.03613
40,81.93662,161.81596
41,90.15559,170.69145
42,98.64404,179.63988
43,107.39113,188.6394
44,116.3643,197.667
45,125.54642,206.70065
46,134.92032,215.71779
47,144.45114,224.69528
48,154.12668,233.6113
49,163.91095,242.44292
50,173.78539,251.1687
51,183.73138,259.76685
52,193.71199,268.21524
53,203.7144,276.4934
54,213.70143,284.58
55,223.65424,292.45538
56,233.55396,300.09998
57,243.3638,307.49396
58,253.0712,314.6195
59,262.64,321.45822
60,272.05237,327.9936
61,281.2903,334.2093
62,290.31946,340.08917
63,299.12827,345.61914
64,307.684,350.7848
65,315.97067,355.57376
66,323.9724,359.9741
67,331.6595,363.97427
68,339.02203,367.56482
69,346.03265,370.73627
70,352.67847,373.4811
71,358.94653,375.7925
72,364.81357,377.6643
73,370.27206,379.09216
74,375.30173,380.07217
75,379.89343,380.60223
76,384.03812,380.681
77,387.72034,380.308
78,390.93542,379.48444
79,393.6714,378.21213
80,395.92352,376.49445
81,397.68707,374.33566
82,398.95557,371.74106
83,399.72733,368.71722
84,399.9995,365.27167
85,399.77203,361.41306
86,399.04486,357.15094
87,397.8207,352.49606
88,396.10117,347.46
89,393.8926,342.05542
90,391.19965,336.29575
91,388.02698,330.1953
92,384.3863,323.76956
93,380.28238,317.03436
94,375.7304,310.00684
95,370.73944,302.70425
96,365.31848,295.1448
97,359.48767,287.34772
98,353.25452,279.33218
99,346.64215,271.1186
100,339.66345,262.7271
101,332.33127,254.17863
102,324.67285,245.49501
103,316.698,236.69748
104,308.4364,227.80853
105,299.9039,218.84988
106,291.11636,209.84389
107,282.1065,200.81363
108,272.8858,191.7811
109,263.4886,182.76947
110,253.93279,173.80067
111,244.23627,164.89711
112,234.43513,156.08165
113,224.5419,147.37572
114,214.59338,138.8017
115,204.6084,130.3804
116,194.60579,122.13284
117,184.62277,114.0803
118,174.6721,106.24225
119,164.79082,98.63894
120,154.99747,91.288734
121,145.3107,84.209984
122,135.76648,77.42102
123,126.37708,70.938194
124,117.177376,64.77832
125,108.18459,58.956207
126,99.41591,53.48639
127,90.90394,48.383106
128,82.65957,43.658573
129,74.713455,39.32513
130,67.08035,35.393097
131,59.774963,31.87229
132,52.824448,28.771992
133,46.2377,26.099497
134,40.039246,23.86192
135,34.240417,22.064438
136,28.852524,20.711552
137,23.895615,19.807001
138,19.376053,19.352713
139,15.310623,19.35012
140,11.706589,19.798954
141,8.571213,20.698107
142,5.9161224,22.04554
143,3.7447205,23.837698
144,2.065094,26.070251
145,0.8799591,28.737494
146,0.1920166,31.832777
147,0.0037994385,35.34842
148,0.31558228,39.2756
149,1.1261902,43.604492
150,2.4336395,48.324306
151,4.235901,53.42327
152,6.5262756,58.888535
153,9.301849,64.706566
154,12.552292,70.86265
155,16.271027,77.34158
156,20.451447,84.1272
157,25.078018,91.202286
158,30.144821,98.54942
159,35.63301,106.14994
160,41.5318,113.98516
161,47.830475,122.03553
162,54.50557,130.28053
163,61.548553,138.69998
164,68.93324,147.27235
165,76.64536,155.9767
166,84.670654,164.7913
167,92.979256,173.6936
168,101.56053,182.66187
169,110.38258,191.67313
170,119.42852,200.70541
171,128.68146,209.73618
172,138.10696,218.74226
173,147.693,227.70175
174,157.4039,236.59161
175,167.22122,245.39026
176,177.1265,254.07571
177,187.08289,262.62564
178,197.07765,271.0193
179,207.07364,279.23502
180,217.05194,287.25296
181,226.9937,295.05307
182,236.86194,302.61523
183,246.64401,309.92117
184,256.30356,316.95197
185,265.82245,323.69067
186,275.18256,330.12048
187,284.3491,336.2247
188,293.31027,341.98868
189,302.0328,347.3974
190,310.50046,352.43793
191,318.69696,357.09766
192,326.5918,361.3644
193,334.17496,365.22803
194,341.41815,368.67838
195,348.30804,371.7073
196,354.83133,374.30722
197,360.96368,376.47122
198,366.69727,378.19427
199,372.0108,379.4717
200,376.8946,380.30072
201,381.33905,380.6792
202,385.3276,380.6059
203,388.85516,380.08127
204,391.90866,379.10638
205,394.48267,377.68393
206,396.57196,375.8174
207,398.16876,373.51135
208,399.271,370.77167
209,399.87454,367.6051
210,399.97876,364.01962
211,399.583,360.0242
212,398.68872,355.62878
213,397.29706,350.84436
214,395.4132,345.68295
215,393.04114,340.15738
216,390.18494,334.28143
217,386.85522,328.06995
218,383.0562,321.53827
219,378.80203,314.70294
220,374.1012,307.5808
221,368.9621,300.18967
222,363.40393,292.5483
223,357.43378,284.67548
224,351.0738,276.59125
225,344.33643,268.3154
226,337.234,259.86862
227,329.79297,251.27248
228,322.02286,242.54799
229,313.95255,233.71745
230,305.59753,224.80246
231,296.9734,215.82524
232,288.11215,206.80878
233,279.02518,197.77507
234,269.74628,188.7473
235,260.2931,179.74742
236,250.68341,170.7979
237,240.95291,161.92172
238,231.11409,153.14049
239,221.20349,144.47676
240,211.23993,135.95157
241,201.24219,127.58619
242,191.24744,119.40219
243,181.26846,111.41938
244,171.3424,103.65837
245,161.48793,96.137924
246,151.72374,88.87681
247,142.08615,81.89382
248,132.5875,75.20579
249,123.2631,68.83005
250,114.13041,62.78193
251,105.20686,57.076546
252,96.52566,51.728733
253,88.09789,46.751297
254,79.954926,42.157234
255,72.11185,37.957493
256,64.58377,34.162567
257,57.398697,30.782433
258,50.565826,27.82507
259,44.110565,25.298319
260,38.044754,23.208069
261,32.38022,21.559547
262,27.138,20.357252
263,22.32486,19.603836
264,17.958649,19.3015
265,14.047241,19.450706
266,10.598434,20.051092
267,7.6250305,21.101389
268,5.1308594,22.598763
269,3.1251984,24.53964
270,1.6113892,26.919025
271,0.59272766,29.730986
272,0.07299805,32.96857
273,0.052886963,36.623634
274,0.5324707,40.687054
275,1.510376,45.148678
276,2.985199,49.99738
277,4.951462,55.22096
278,7.406662,60.806458
279,10.34166,66.73977
280,13.750473,73.006226
281,17.62709,79.5902
282,21.957092,86.47499
283,26.734955,93.64365
284,31.942886,101.07795
285,37.570663,108.75963
286,43.608047,116.66952
287,50.032578,124.78747
288,56.836014,133.09357
289,63.993103,141.56662
290,71.489944,150.18591
291,79.312706,158.9299
292,87.432304,167.77626
293,95.83833,176.70337
294,104.49955,185.68839
295,113.39934,194.70938
296,122.52112,203.74384
297,131.83095,212.7686
298,141.31693,221.76169
299,150.94376,230.7
300,160.69315,239.56181
301,170.54678,248.325
302,180.46802,256.96704
303,190.44414,265.46695
304,200.43805,273.80283
305,210.43088,281.95447
306,220.40372,289.90155
307,230.31947,297.62354
308,240.16548,305.10178
309,249.9051,312.31693
310,259.52005,319.2516
311,268.99203,325.88846
312,278.28583,332.2103
313,287.38953,338.2019
314,296.2693,343.84775
315,304.90857,349.13425
316,313.29077,354.04822
317,321.38474,358.57684
318,329.1801,362.70932
319,336.64795,366.4348
320,343.77435,369.74448
321,350.54565,372.63004
322,356.93655,375.08386
323,362.93893,377.10022
324,368.53046,378.6737
325,373.701,379.80072
326,378.4403,380.4785
327,382.73077,380.70496
328,386.567,380.4799
329,389.9346,379.80356
330,392.8277,378.6779
331,395.24042,377.10568
332,397.16373,375.09073
333,398.5952,372.63818
334,399.5295,369.75406
335,399.96533,366.4457
336,399.90143,362.7213
337,399.33795,358.5902
338,398.27573,354.06268
339,396.71863,349.15012
340,394.6701,343.86472
341,392.1335,338.2197
342,389.11835,332.22928
343,385.62842,325.90826
344,381.67676,319.2727
345,377.2712,312.33896
346,372.41968,305.12427
347,367.14026,297.647
348,361.43964,289.92554
349,355.3391,281.97955
350,348.85046,273.8285
351,341.98566,265.4927
352,334.7702,256.9935
353,327.21335,248.35165
354,319.3432,239.58926
355,311.1749,230.72772
356,302.72363,221.78915
357,294.02078,212.79643
358,285.07755,203.7715
359,275.92712,194.7375
360,266.58704,185.71643
361,257.07474,176.7308
362,247.42561,167.80371
363,237.65201,158.95683
364,227.79027,150.21294
365,217.8591,141.59323
366,207.87723,133.11925
367,197.88174,124.81281
368,187.88547,116.694046
369,177.92555,108.78388
370,168.02078,101.10148
371,158.18994,93.666
372,148.46957,86.49667
373,138.87213,79.6108
374,129.43332,73.02621
375,120.17077,66.75875
376,111.1022,60.82408
377,102.26132,55.237625
378,93.65945,50.01277
379,85.32857,45.163143
380,77.28416,40.70032
381,69.5417,36.635452
382,62.12999,32.979206
383,55.058502,29.74023
384,48.353546,26.92709
385,42.02742,24.546371
386,36.09247,22.604034
387,30.57074,21.10532
388,25.469315,20.053608
389,20.807144,19.451862
390,16.592651,19.301275
391,12.834213,19.602234
392,9.545792,20.354237
393,6.731598,21.555176
394,4.4020996,23.20224
395,2.561264,25.291145
396,1.2130127,27.816689
397,0.36235046,30.772654
398,0.010375977,34.151577
399,0.15838623,37.945045
400,0.8059387,42.143566
401,1.9514313,46.736637
402,3.5914154,51.712772
403,5.722824,57.05959
404,8.339859,62.763676
405,11.43602,68.81077
406,15.003555,75.185745
407,19.032211,81.87266
408,23.514435,88.854935
409,28.437836,96.115
410,33.790085,103.63469
411,39.55783,111.39521
412,45.72473,119.37715
413,52.279083,127.56076
414,59.202713,135.9254
415,66.4783,144.45015
416,74.087654,153.1137
417,82.009315,161.89436
418,90.228294,170.7705
419,98.72167,179.71964
420,107.46823,188.71942
421,116.4461,197.74733
422,125.63,206.7808
423,135.00258,215.79756
424,144.53763,224.77478
425,154.21133,233.69002
426,163.99951,242.521
427,173.87463,251.24562
428,183.81808,259.8424
429,193.80199,268.28955
430,203.80138,276.56595
431,213.79126,284.6509
432,223.74364,292.52423
433,233.63971,300.16653
434,243.45169,307.5584
435,253.15504,314.6814
436,262.72552,321.51767
437,272.13635,328.05014
438,281.36978,334.26282
439,290.39978,340.13983
440,299.2038,345.6665
441,307.75983,350.82904
442,316.044,355.61453
443,324.04065,360.01126
444,331.72723,364.00803
445,339.08453,367.5948
446,346.09418,370.7626
447,352.73657,373.50357
448,358.99933,375.81104
449,364.86456,377.67902
450,370.3177,379.10284
451,375.34503,380.07898
452,379.93274,380.60498
453,384.07214,380.67966
454,387.7514,380.3027
455,390.9613,379.47507
456,393.69385,378.19882
457,395.9416,376.47717
458,397.70026,374.31448
459,398.96475,371.71606
460,399.73187,368.68845
461,399.9997,365.2392
462,399.7677,361.37692
463,399.03632,357.1113
464,397.80743,352.45297
465,396.08405,347.4136
466,393.8705,342.0058
467,391.17322,336.24307
468,387.9973,330.13974
469,384.35144,323.71112
470,380.2447,316.9733
471,375.68744,309.94315
472,370.69254,302.6382
473,365.2695,295.07663
474,359.43335,287.27744
475,353.1986,279.26013
476,346.58093,271.04474
477,339.599,262.65186
478,332.26605,254.1022
479,324.60245,245.41733
480,316.62735,236.61897
481,308.36075,227.72916
482,299.82587,218.7701
483,291.0389,209.7639
484,282.02438,200.73334
485,272.8048,191.701
486,263.4032,182.68947
487,253.84608,173.72128
488,244.15144,164.81853
489,234.34644,156.00377
490,224.45558,147.29903
491,214.50359,138.72607
492,204.51837,130.30635
493,194.51884,122.06058
494,184.533,114.00966
495,174.58583,106.17374
496,164.70218,98.57239
497,154.90976,91.22463
498,145.22702,84.14851
499,135.68123,77.362015
500,126.29621,70.8821
501,117.095436,64.72498
502,108.104614,58.906048
503,99.34074,53.43954
504,90.828476,48.33941
505,82.589134,43.618404
506,74.64329,39.288322
507,67.01309,35.359997
508,59.71295,31.842987
509,52.763504,28.746325
510,46.182114,26.077751
511,39.985214,23.843933
512,34.19005,22.050457
513,28.807526,20.701614
514,23.852951,19.800959
515,19.338715,19.350737
516,15.276093,19.352072
517,11.67627,19.804958
518,8.546036,20.708145
519,5.894394,22.059492
520,3.7279816,23.855614
521,2.0522003,26.092018
522,0.87153625,28.763111
523,0.18821716,31.862175
524,0.0043792725,35.381504
525,0.32048035,39.312294
526,1.1357574,43.64472
527,2.447647,48.36794
528,4.253723,53.470192
529,6.549118,58.93869
530,9.3280945,64.75976
531,12.58371,70.91883
532,16.306625,77.40051
533,20.489792,84.18873
534,25.121704,91.26639
535,30.190765,98.6158
536,35.68431,106.21859
537,41.58676,114.05574
538,47.886932,122.10785
539,54.567368,130.35461
540,61.611343,138.77542
541,69.00125,147.34921
542,76.716255,156.05453
543,84.74172,164.8699
544,93.05532,173.77304
545,101.63626,182.74168
546,110.46308,191.7534
547,119.51094,200.78566
548,128.76273,209.8162
549,138.1926,218.82214
550,147.77695,227.78099
551,157.49188,236.67033
552,167.31004,245.46794
553,177.2129,254.15216
554,187.17274,262.701
555,197.16463,271.09302
556,207.16362,279.30728
557,217.14165,287.32324
558,227.07988,295.1212
559,236.95042,302.68137
560,246.72859,309.98483
561,256.38995,317.0133
562,265.90747,323.74924
563,275.26318,330.1761
564,284.43073,336.27753
565,293.3872,342.03827
566,302.11023,347.44397
567,310.5755,352.48105
568,318.76694,357.1372
569,326.6615,361.40057
570,334.23944,365.2605
571,341.4818,368.70728
572,348.36847,371.73233
573,354.88638,374.3283
574,361.0171,376.48853
575,366.74533,378.20758
576,372.0567,379.48117
577,376.93658,380.30612
578,381.37573,380.6805
579,385.36145,380.60327
580,388.8838,380.07462
581,391.934,379.09583
582,394.50366,377.66937
583,396.588,375.7989
584,398.1809,373.48898
585,399.27838,370.74545
586,399.87772,367.57513
587,399.97745,363.98596
588,399.5774,359.9869
589,398.6784,355.58798
590,397.2828,350.80017
591,395.39404,345.63544
592,393.0176,340.10672
593,390.15802,334.22775
594,386.8231,328.01328
595,383.02112,321.47885
596,378.76166,314.6408
597,374.05685,307.5163
598,368.91553,300.12292
599,363.352,292.4793
600,357.3801,284.60458
601,351.01477,276.51843
602,344.2741,268.24106
603,337.17072,259.79297
604,329.7245,251.19547
605,321.95395,242.47003
606,313.87854,233.6385
607,305.52106,224.72296
608,296.8973,215.74539
609,288.0313,206.72852
610,278.94525,197.69487
611,269.66187,188.66705
612,260.20724,179.66763
613,250.59926,170.7188
614,240.86479,161.8432
615,231.02815,153.06303
616,221.11397,144.40025
617,211.15004,135.87651
618,201.15521,127.512794
619,191.15749,119.33031
620,181.18187,111.34951
621,171.2533,103.59036
622,161.39957,96.072266
623,151.63933,88.813675
624,141.99997,81.833046
625,132.5056,75.147835
626,123.179955,68.77475
627,114.0491,62.729725
628,105.13029,57.027573
629,96.44862,51.68283
630,88.02581,46.708855
631,79.88292,42.11808
632,72.04263,37.921986
633,64.519775,34.130802
634,57.335587,30.754251
635,50.50804,27.80077
636,44.05417,25.27774
637,37.991943,23.191471
638,32.332764,21.546974
639,27.092743,20.348555
640,22.284943,19.599201
641,17.921387,19.300785
642,14.014114,19.454052
643,10.570496,20.05849
644,7.6004333,21.112715
645,5.111313,22.614079
646,3.109375,24.55883
647,1.5999908,26.942104
648,0.5860443,29.757895
649,0.07058716,32.99921
650,0.054901123,36.657948
651,0.53904724,40.724953
652,1.5214386,45.190052
653,3.000183,50.042118
654,4.97139,55.269
655,7.43013,60.857624
656,10.3702545,66.794014
657,13.783295,73.063324
658,17.662811,79.65
659,21.998138,86.53747
660,26.778412,93.7085
661,31.991714,101.14519
662,37.623215,108.82891
663,43.662292,116.740654
664,50.092163,124.86048
665,56.89679,133.16808
666,64.05911,141.64267
667,71.558945,150.26306
668,79.38209,159.00797
669,87.50674,167.8553
670,95.9126,176.78293
671,104.57867,185.76852
672,113.48051,194.78963
673,122.60131,203.82397
674,131.91559,212.84872
675,141.40009,221.84131
676,151.03105,230.77922
677,160.78143,239.64014
678,170.63283,248.40222
679,180.55762,257.04327
680,190.53102,265.5417
681,200.52809,273.8762
682,210.52078,282.026
683,220.49023,289.97104
684,230.40848,297.69116
685,240.25069,305.167
686,249.99228,312.37994
687,259.60602,319.31192
688,269.07367,325.94592
689,278.36865,332.26505
690,287.46777,338.25354
691,296.3482,343.89642
692,304.98523,349.17957
693,313.36243,354.09006
694,321.4563,358.61536
695,329.24652,362.74414
696,336.71368,366.4661
697,343.83694,369.77194
698,350.60287,372.65363
699,356.99234,375.1037
700,362.98935,377.1161
701,368.57892,378.68576
702,373.7456,379.80878
703,378.47955,380.48245
704,382.76736,380.705
705,386.5983,380.47583
706,389.96277,379.79556
707,392.85156,378.6659
708,395.25925,377.08972
709,397.17883,375.0709
710,398.60547,372.61444
711,399.53564,369.72656
712,399.96698,366.41446
713,399.89868,362.6864
714,399.33063,358.5517
715,398.2643,354.0207
716,396.7024,349.10477
717,394.6494,343.81616
718,392.10934,338.16803
719,389.08905,332.17456
720,385.59604,325.85074
721,381.6391,319.21237
722,377.2295,312.27606
723,372.3756,305.05902
724,367.0908,297.57944
725,361.3883,289.85596
726,355.28235,281.90793
727,348.79028,273.75522
728,341.92438,265.418
729,334.70367,256.9173
730,327.1462,248.27435
731,319.27094,239.51083
732,311.10004,230.6486
733,302.649,221.70956
734,293.9413,212.71631
735,284.9988,203.69131
736,275.8438,194.65715
737,266.50214,185.63641
738,256.99136,176.65135
739,247.33813,167.72469
740,237.56657,158.87875
741,227.70111,150.13567
742,217.76942,141.51729
743,207.7903,133.04483
744,197.79172,124.73978
745,187.79863,116.622894
746,177.83606,108.714485
747,167.93192,101.03431
748,158.10489,93.60125
749,148.38258,86.43418
750,138.78932,79.551025
751,129.34906,72.969
752,120.088234,66.70455
753,111.0243,60.773033
754,102.182785,55.18956
755,93.58579,49.968094
756,85.254814,45.121685
757,77.21307,40.66245
758,69.475784,36.601273
759,62.064774,32.948547
760,54.99858,29.713411
761,48.29486,26.903948
762,41.972214,24.52718
763,36.04265,22.588842
764,30.522919,21.093975
765,25.42685,20.046314
766,20.767181,19.448479
767,16.556763,19.301958
768,12.803574,19.606981
769,9.518326,20.362915
770,6.709244,21.567871
771,4.3833313,23.21883
772,2.546936,25.311663
773,1.2034607,27.841078
774,0.3569641,30.800814
775,0.009506226,34.183464
776,0.1619873,37.98057
777,0.8137512,42.18264
778,1.963562,46.779182
779,3.608429,51.758698
780,5.744217,57.108727
781,8.365601,62.815895
782,11.465027,68.86593
783,15.036621,75.24381
784,19.070572,81.9335
785,23.556824,88.918274
786,28.48413,96.18066
787,33.838486,103.7025
788,39.609787,111.46517
789,45.782043,119.44911
790,52.339798,127.634346
791,59.266663,136.00041
792,66.54306,144.52638
793,74.15526,153.1912
794,82.08202,161.97296
795,90.303566,170.84973
796,98.799324,179.79932
797,107.54535,188.79933
798,116.52513,197.82756
799,125.71358,206.86118
800,135.08774,215.8776
801,144.62415,224.85425
802,154.29602,233.7687
803,164.08508,242.59901
804,173.96391,251.32278
805,183.90782,259.9182
806,193.89197,268.3638
807,203.88834,276.63846
808,213.87804,284.72183
809,223.83304,292.59335
810,233.72845,300.2334
811,243.53957,307.62286
812,253.23889,314.74326
813,262.8081,321.5771
814,272.22034,328.10696
815,281.45203,334.3166
816,290.48007,340.19043
817,299.27933,345.7138
818,307.8331,350.87323
819,316.1173,355.65546
820,324.11127,360.0486
821,331.79498,364.04166
822,339.14703,367.62463
823,346.15356,370.78882
824,352.7947,373.5261
825,359.0539,375.8296
826,364.91553,377.69354
827,370.36328,379.11334
828,375.38687,380.0856
829,379.97205,380.60767
830,384.10736,380.6783
831,387.7824,380.29733
832,390.98712,379.46567
833,393.71548,378.1855
834,395.9596,376.45993
835,397.71387,374.29333
836,398.97388,371.69107
837,399.73633,368.65964
838,399.99982,365.2067
839,399.76334,361.34082
840,399.0275,357.07166
841,397.79413,352.4099
842,396.0669,347.36722
843,393.84912,341.95615
844,391.14676,336.19028
845,387.96655,330.084
846,384.3165,323.65262
847,380.20697,316.9122
848,375.6458,309.87946
849,370.6456,302.57208
850,365.21878,295.00836
851,359.37897,287.2072
852,353.1427,279.18814
853,346.52173,270.97098
854,339.53452,262.57645
855,332.1985,254.02556
856,324.53198,245.33968
857,316.5567,236.54053
858,308.28763,227.64984
859,299.74786,218.6901
860,290.95874,209.68367
861,281.94226,200.65312
862,272.72375,191.621
863,263.3207,182.6096
864,253.75937,173.6417
865,244.06363,164.73975
866,234.25774,155.926
867,224.36925,147.22246
868,214.41682,138.6506
869,204.42836,130.23213
870,194.42883,121.988106
871,184.44324,113.93913
872,174.49954,106.10535
873,164.61656,98.50599
874,154.82204,91.16038
875,145.14044,84.08687
876,135.59598,77.30314
877,126.215355,70.82616
878,117.01629,64.67181
879,108.02466,58.85576
880,99.26294,53.392548
881,90.75305,48.295837
882,82.51873,43.57837
883,74.57553,39.251663
884,66.94585,35.32679
885,59.64879,31.81356
886,52.702576,28.720757
887,46.126526,26.05611
888,39.933044,23.826065
889,34.13971,22.0364
890,28.760986,20.691587
891,23.810333,19.794989
892,19.301422,19.34884
893,15.242767,19.35411
894,11.645966,19.810926
895,8.52002,20.718145
896,5.872711,22.073494
897,3.7112885,23.873583
898,2.039795,26.11384
899,0.8631592,28.788734
900,0.18432617,31.891579
901,0.004989624,35.414608
902,0.3254242,39.34901
903,1.1450348,43.684963
904,2.4617157,48.411625
905,4.272217,53.517174
906,6.571991,58.988834
907,9.35437,64.81293
908,12.61409,70.97499
909,16.34224,77.45954
910,20.52951,84.25036
911,25.165405,91.33046
912,30.23674,98.68214
913,35.733917,106.287186
914,41.641724,114.126434
915,47.945404,122.1803
916,54.62918,130.42862
917,61.67415,138.85078
918,69.067,147.42596
919,76.78716,156.13252
920,84.81532,164.94868
921,93.131424,173.85239
922,101.712006,182.8214
923,110.54087,191.83356
924,119.59336,200.86607
925,128.84686,209.89638
926,138.27823,218.90189
927,147.86093,227.86008
928,157.57687,236.74889
929,167.39886,245.54578
930,177.30237,254.22878
931,187.26259,262.77615
932,197.2516,271.16656
933,207.25055,279.37933
934,217.23135,287.39365
935,227.16908,295.18945
936,237.03891,302.74728
937,246.81317,310.04822
938,256.4734,317.07437
939,265.9925,323.80783
940,275.34656,330.23178
941,284.51233,336.33014
942,293.4641,342.08768
943,302.18503,347.4903
944,310.6505,352.52423
945,318.83936,357.17685
946,326.73117,361.43658
947,334.3039,365.29276
948,341.54327,368.73596
949,348.42883,371.7574
950,354.94333,374.34943
951,361.0705,376.50568
952,366.79333,378.2207
953,372.10107,379.49045
954,376.97855,380.3115
955,381.41364,380.68185
956,385.39523,380.60056
957,388.91235,380.0678
958,391.95844,379.08508
959,394.5246,377.65472
960,396.60455,375.7803
961,398.193,373.4665
962,399.28577,370.71912
963,399.88074,367.54504
964,399.97607,363.9522
965,399.57153,359.94955
966,398.66806,355.54712
967,397.2685,350.75592
968,395.37543,345.5879
969,392.99402,340.05597
970,390.1301,334.17398
971,386.79092,327.95667
972,382.98602,321.41956
973,378.72266,314.57883
974,374.01248,307.45175
975,368.8673,300.05612
976,363.30005,292.41046
977,357.32642,284.53384
978,350.95776,276.44577
979,344.21173,268.1667
980,337.1052,259.71722
981,329.65594,251.11858
982,321.88498,242.39221
983,313.807,233.55968
984,305.44458,224.64331
985,296.81854,215.66539
986,287.95044,206.64838
987,278.86536,197.61482
988,269.58032,188.58699
989,260.12137,179.58772
990,250.51215,170.63956
991,240.77664,161.76483
992,230.94223,152.98575
993,221.02747,144.32393
994,211.06015,135.80132
995,201.06517,127.439224
996,191.06754,119.25856
997,181.09528,111.279785
998,171.16722,103.522514
999,161.31123,96.00644
1000,151.55197,88.75035
1001,141.91382,81.77239
1002,132.42374,75.09001
1003,123.099655,68.719604
1004,113.96781,62.67738
1005,105.051025,56.978443
1006,96.371605,51.637043
1007,87.95374,46.666534
1008,79.81337,42.079067
1009,71.97345,37.886368
1010,64.45355,34.098915
1011,57.272507,30.72618
1012,50.45027,27.776588
1013,43.999725,25.257292
1014,37.939148,23.174799
1015,32.283707,21.534317
1016,27.0475,20.339941
1017,22.245056,19.594658
1018,17.885406,19.300169
1019,13.981018,19.457367
1020,10.541641,20.065851
1021,7.5758514,21.124096
1022,5.0917816,22.629456
1023,3.0941162,24.578087
1024,1.5886536,26.965195
1025,0.57917786,29.784811
1026,0.06820679,33.02988
1027,0.05697632,36.69229
1028,0.54545593,40.762882
1029,1.5325317,45.231483
1030,3.015747,50.086926
1031,4.9913635,55.31706
1032,7.453644,60.908802
1033,10.397919,66.84827
1034,13.816162,73.12053
1035,17.69983,79.70991
1036,22.0392,86.59992
1037,26.821915,93.77334
1038,32.038925,101.21239
1039,37.675797,108.89832
1040,43.71846,116.81194
1041,50.15178,124.93344
1042,56.95755,133.24252
1043,64.122925,141.71863
1044,71.627975,150.34038
1045,79.45391,159.08621
1046,87.58119,167.93425
1047,95.98689,176.86237
1048,104.65512,185.84853
1049,113.56169,194.87001
1050,122.68434,203.90427
1051,132.00026,212.92871
1052,141.48325,221.92076
1053,151.11539,230.85826
1054,160.86972,239.71858
1055,170.7219,248.47957
1056,180.64723,257.11932
1057,190.6179,265.61624
1058,200.61507,273.9494
1059,210.6107,282.0977
1060,220.5798,290.0407
1061,230.49747,297.7586
1062,240.33589,305.2321
1063,250.0765,312.44278
1064,259.69196,319.37238
1065,269.15814,326.00354
1066,278.4515,332.3197
1067,287.546,338.30505
1068,296.42444,343.94495
1069,305.06183,349.225
1070,313.43658,354.13202
1071,321.52783,358.65375
1072,329.3129,362.77887
1073,336.77716,366.4973
1074,343.89948,369.7996
1075,350.6621,372.6774
1076,357.0481,375.12354
1077,363.03973,377.13193
1078,368.62573,378.69772
1079,373.79016,379.81683
1080,378.52017,380.48645
1081,382.80392,380.70493
1082,386.62958,380.4717
1083,389.99,379.7875
1084,392.87543,378.6539
1085,395.27872,377.07373
1086,397.19385,375.05096
1087,398.61572,372.59064
1088,399.54156,369.69897
1089,399.96863,366.38315
1090,399.89578,362.65143
1091,399.32324,358.51318
1092,398.25287,353.97876
1093,396.68665,349.05942
1094,394.62872,343.76752
1095,392.0843,338.1163
1096,389.0597,332.11987
1097,385.5636,325.7932
1098,381.60266,319.15207
1099,377.18774,312.2131
1100,372.32993,304.9937
1101,367.04132,297.5119
1102,361.3369,289.7864
1103,355.22754,281.83636
1104,348.7301,273.6818
1105,341.8609,265.3431
1106,334.6371,256.84116
1107,327.07904,248.19717
1108,319.2011,239.43253
1109,311.02518,230.56937
1110,302.5717,221.62984
1111,293.86182,212.6363
1112,284.92004,203.61125
1113,275.76334,194.57695
1114,266.4172,185.55624
1115,256.90506,176.5717
1116,247.25066,167.64578
1117,237.48114,158.8008
1118,227.61496,150.05855
1119,217.67975,141.44118
1120,207.70033,132.97023
1121,197.70168,124.666885
1122,187.71182,116.55191
1123,177.74962,108.64525
1124,167.84303,100.96699
1125,158.01685,93.53632
1126,148.29561,86.371826
1127,138.70651,79.49141
1128,129.2677,72.91196
1129,120.0057,66.65021
1130,110.94367,60.721825
1131,102.104256,55.14162
1132,93.51215,49.92355
1133,85.18357,45.08037
1134,77.14202,40.624462
1135,69.40758,36.566956
1136,61.999588,32.918
1137,54.93869,29.68671
1138,48.23819,26.880936
1139,41.917053,24.50791
1140,35.99109,22.57356
1141,30.475128,21.082724
1142,25.38443,20.039124
1143,20.728607,19.445202
1144,16.52092,19.302603
1145,12.771896,19.61168
1146,9.4908905,20.371656
1147,6.68692,21.580631
1148,4.3652344,23.235489
1149,2.5326233,25.332184
1150,1.1936188,27.86547
1151,0.35159302,30.82901
1152,0.008682251,34.21539
1153,0.16551208,38.016132
1154,0.82188416,42.221756
1155,1.976181,46.821743
1156,3.625473,51.80459
1157,5.7649384,57.15782
1158,8.390518,62.868145
1159,11.495087,68.92122
1160,15.070892,75.3019
1161,19.108963,81.99424
1162,23.597794,88.9815
1163,28.528885,96.24636
1164,33.88861,103.77052
1165,39.663605,111.53518
1166,45.839386,119.52091
1167,52.398483,127.70775
1168,59.32849,136.07545
1169,66.61014,144.6029
1170,74.22525,153.26877
1171,82.15476,162.05138
1172,90.376305,170.92879
1173,98.87435,179.87907
1174,107.6252,188.87961
1175,116.606964,197.90788
1176,125.79718,206.94133
1177,135.17001,215.95735
1178,144.70773,224.93373
1179,154.38368,233.84773
1180,164.17365,242.67708
1181,174.05318,251.39969
1182,183.99454,259.99374
1183,193.97891,268.4381
1184,203.97836,276.71136
1185,213.96785,284.79282
1186,223.92242,292.66226
1187,233.8142,300.30002
1188,243.62447,307.68735
1189,253.32568,314.80545
1190,262.8936,321.63654
1191,272.3043,328.1635
1192,281.53146,334.3701
1193,290.55765,340.24106
1194,299.35748,345.76144
1195,307.90894,350.91742
1196,316.1906,355.69614
1197,324.17947,360.08566
1198,331.8604,364.07526
1199,339.2117,367.6547
1200,346.215,370.81503
1201,352.85278,373.5484
1202,359.10663,375.84793
1203,364.96472,377.70807
1204,370.4104,379.12402
1205,375.4301,380.0922
1206,380.0113,380.61023
1207,384.1413,380.6768
1208,387.81232,380.29187
1209,391.01385,379.4563
1210,393.73785,378.17215
1211,395.9776,376.44266
1212,397.72696,374.27213
1213,398.98267,371.66605
1214,399.74097,368.6309
1215,399.99994,365.17422
1216,399.75894,361.3047
1217,399.01892,357.032
1218,397.78122,352.36682
1219,396.04913,347.32077
1220,393.82697,341.9065
1221,391.12024,336.13757
1222,387.93683,330.02838
1223,384.2827,323.59415
1224,380.1679,316.85095
1225,375.60275,309.81573
1226,370.59863,302.50607
1227,365.16974,294.94022
1228,359.3264,287.13696
1229,353.08475,279.1159
1230,346.46045,270.89716
1231,339.46997,262.50122
1232,332.1332,253.94913
1233,324.46393,245.26202
1234,316.48352,236.4618
1235,308.2119,227.57051
1236,299.6698,218.61035
1237,290.8813,209.60374
1238,281.8629,200.5729
1239,272.6399,191.54068
1240,263.2353,182.52966
1241,253.67264,173.56238
1242,243.97878,164.66124
1243,234.17203,155.84819
1244,224.27988,147.14554
1245,214.32703,138.57506
1246,204.33835,130.15817
1247,194.34189,121.91593
1248,184.35652,113.86861
1249,174.41025,106.03661
1250,164.52795,98.439545
1251,154.73433,91.09639
1252,145.0568,84.025505
1253,135.51364,77.244255
1254,126.131676,70.76988
1255,116.93437,64.618576
1256,107.94472,58.805714
1257,99.18781,53.345825
1258,90.68021,48.252274
1259,82.44587,43.53806
1260,74.50541,39.21497
1261,66.87865,35.293808
1262,59.586838,31.784382
1263,52.643753,28.695219
1264,46.06903,26.034271
1265,39.87909,23.808187
1266,34.089417,22.022532
1267,28.71608,20.681767
1268,23.769196,19.789064
1269,19.262848,19.346828
1270,15.208313,19.35616
1271,11.615723,19.81703
1272,8.494919,20.728289
1273,5.851822,22.087553
1274,3.6940308,23.891523
1275,2.0269928,26.135689
1276,0.8548279,28.814432
1277,0.18061829,31.921055
1278,0.005630493,35.44777
1279,0.33058167,39.385784
1280,1.1546631,43.725254
1281,2.4758148,48.45532
1282,4.2901154,53.56415
1283,6.594116,59.039043
1284,9.381607,64.86626
1285,12.645584,71.03122
1286,16.377914,77.51852
1287,20.567902,84.31191
1288,25.207657,91.39458
1289,30.284348,98.74868
1290,35.785294,106.355835
1291,41.696747,114.19701
1292,48.001923,122.252594
1293,54.68895,130.50267
1294,61.739197,138.92642
1295,69.135086,147.50279
1296,76.85809,156.21031
1297,84.886444,165.02724
1298,93.20495,173.93178
1299,101.79043,182.90143
1300,110.621414,191.91376
1301,119.67581,200.94626
1302,128.92816,209.97632
1303,138.36096,218.98167
1304,147.94786,227.93954
1305,157.66487,236.82751
1306,167.4877,245.62337
1307,177.38878,254.30511
1308,187.3494,262.85138
1309,197.34163,271.24048
1310,207.34052,279.45148
1311,217.32104,287.46384
1312,227.25526,295.25748
1313,237.12439,302.8133
1314,246.9007,310.1121
1315,256.55978,317.1356
1316,266.07745,323.86624
1317,275.42715,330.2872
1318,284.59116,336.38275
1319,293.5437,342.1374
1320,302.26242,347.53668
1321,310.7255,352.56717
1322,318.90933,357.21628
1323,326.79846,361.47263
1324,334.3706,365.32532
1325,341.60687,368.76474
1326,348.48914,371.7823
1327,354.9983,374.37042
1328,361.12207,376.5229
1329,366.84302,378.2341
1330,372.1469,379.4998
1331,377.02045,380.31677
1332,381.45026,380.683
1333,385.42786,380.59778
1334,388.94193,380.06113
1335,391.98367,379.07437
1336,394.54553,377.64
1337,396.62048,375.76163
1338,398.20465,373.444
1339,399.29333,370.69284
1340,399.88385,367.51505
1341,399.97467,363.91852
1342,399.5658,359.9123
1343,398.65802,355.50635
1344,397.25366,350.7117
1345,395.35617,345.54037
1346,392.97034,340.0053
1347,390.1031,334.12033
1348,386.75983,327.90002
1349,382.9497,321.36005
1350,378.68222,314.51675
1351,373.96808,307.38727
1352,368.8207,299.98938
1353,363.24982,292.34146
1354,357.2708,284.46277
1355,350.89868,276.373
1356,344.14932,268.09235
1357,337.04187,259.6416
1358,329.5897,251.0416
1359,321.8136,242.31404
1360,313.73297,233.48076
1361,305.36804,224.56386
1362,296.7424,215.58562
1363,287.8723,206.5682
1364,278.7826,197.53442
1365,269.4959,188.50685
1366,260.0355,179.50807
1367,250.42798,170.56058
1368,240.69148,161.68642
1369,230.85327,152.90808
1370,220.93793,144.24751
1371,210.97025,135.72636
1372,200.9782,127.36594
1373,190.98064,119.1868
1374,181.00565,111.2097
1375,171.07812,103.4546
1376,161.2229,95.94087
1377,151.46758,88.68732
1378,141.83058,81.71173
1379,132.33899,75.03186
1380,123.01655,68.6644
1381,113.886536,62.625275
1382,104.97448,56.92958
1383,96.29722,51.59126
1384,87.87918,46.62393
1385,79.74142,42.040016
1386,71.9043,37.850975
1387,64.38962,34.067276
1388,57.21158,30.698128
1389,50.390488,27.752188
1390,43.94339,25.236822
1391,37.886414,23.158316
1392,32.236343,21.521862
1393,27.00383,20.331364
1394,22.203796,19.58998
1395,17.84822,19.299557
1396,13.947983,19.460815
1397,10.513794,20.073353
1398,7.55217,21.135525
1399,5.0716095,22.644787
1400,3.078354,24.597364
1401,1.5773468,26.988367
1402,0.57258606,29.811815
1403,0.065963745,33.06062
1404,0.059143066,36.726692
1405,0.552124,40.800865
1406,1.5436707,45.272945
1407,3.0308075,50.131756
1408,5.010681,55.365196
1409,7.478012,60.960144
1410,10.42659,66.9026
1411,13.84906,73.17772
1412,17.735626,79.7698
1413,22.078903,86.66249
1414,26.866974,93.83844
1415,32.087814,101.27972
1416,37.728424,108.96771
1417,43.77275,116.883194
1418,50.209396,125.006584
1419,57.020493,133.31738
1420,64.18901,141.79482
1421,71.69702,150.4177
1422,79.52334,159.16443
1423,87.653145,168.01344
1424,96.063805,176.94237
1425,104.734276,185.92888
1426,113.6429,194.9505
1427,122.76457,203.98468
1428,132.08208,213.00914
1429,141.56937,222.00104
1430,151.2027,230.9379
1431,160.95804,239.79736
1432,170.80794,248.55728
1433,180.73381,257.1961
1434,190.70784,265.69193
1435,200.70511,274.0235
1436,210.7006,282.16998
1437,220.66632,290.11102
1438,230.58342,297.82712
1439,240.42407,305.29865
1440,250.16367,312.50693
1441,259.77786,319.434
1442,269.23978,326.06247
1443,278.5315,332.3761
1444,287.62692,338.35883
1445,296.5033,343.9957
1446,305.13843,349.27264
1447,313.50824,354.17645
1448,321.5969,358.69513
1449,329.38156,362.81714
1450,336.84283,366.53223
1451,343.962,369.83105
1452,350.7193,372.70538
1453,357.10196,375.1483
1454,363.0919,377.15344
1455,368.67413,378.71585
1456,373.83472,379.83163
1457,378.5594,380.49796
1458,382.83917,380.71338
1459,386.66193,380.4772
1460,390.01807,379.79
1461,392.89923,378.65356
1462,395.2975,377.07074
1463,397.20837,375.04553
1464,398.62625,372.583
1465,399.54764,369.68933
1466,399.97018,366.37173
1467,399.89294,362.63858
1468,399.3161,358.49924
1469,398.24097,353.96405
1470,396.6703,349.0444
1471,394.60797,343.75266
1472,392.06006,338.10208
1473,389.0313,332.10678
1474,385.53,325.78183
1475,381.56494,319.14316
1476,377.146,312.20743
1477,372.28577,304.99203
1478,366.99344,297.51495
1479,361.2837,289.79514
1480,355.17075,281.852
1481,348.66992,273.70544
1482,341.7996,265.37607
1483,334.57275,256.88458
1484,327.00952,248.2526
1485,319.12878,239.50182
1486,310.95026,230.65439
1487,302.497,221.73262
1488,293.785,212.7588
1489,284.83853,203.7559
1490,275.68,194.74672
1491,266.33228,185.75415
1492,256.82166,176.80103
1493,247.16612,167.90985
1494,237.39268,159.1036
1495,227.52577,150.40482
1496,217.59006,141.83583
1497,207.61342,133.4187
1498,197.6147,125.17485
1499,187.62195,117.12598
1500,177.66014,109.29309
1501,167.75418,101.696754
1502,157.93181,94.35704
1503,148.21158,87.293175
1504,138.62082,80.52447
1505,129.18349,74.06932
1506,119.92319,67.945526
1507,110.86579,62.170235
1508,102.02842,56.75962
1509,93.43594,51.729755
1510,85.10986,47.095737
1511,77.070984,42.87195
1512,69.341705,39.072056
1513,61.936646,35.708763
1514,54.87671,32.79455
1515,48.17955,30.340979
1516,41.861908,28.358915
1517,35.94133,26.858583
1518,30.429,25.84939
1519,25.340546,25.340546
