no,raw,smooth
0,190.6179,265.61624
1,200.61507,273.9494
2,210.6107,282.0977
3,220.5798,290.0407
4,230.49747,297.7586
5,240.33589,305.2321
6,250.0765,312.44278
7,259.69196,319.37238
8,269.15814,326.00354
9,278.4515,332.3197
10,287.546,338.30505
11,296.42444,343.94495
12,305.06183,349.225
13,313.43658,354.13202
14,321.52783,358.65375
15,329.3129,362.77887
16,336.77716,366.4973
17,343.89948,369.7996
18,350.6621,372.6774
19,357.0481,375.12354
20,363.03973,377.13193
21,368.62573,378.69772
22,373.79016,379.81683
23,378.52017,380.48645
24,382.80392,380.70493
25,386.62958,380.4717
26,389.99,379.7875
27,392.87543,378.6539
28,395.27872,377.07373
29,397.19385,375.05096
30,398.61572,372.59064
31,399.54156,369.69897
32,399.96863,366.38315
33,399.89578,362.65143
34,399.32324,358.51318
35,398.25287,353.97876
36,396.68665,349.05942
37,394.62872,343.76752
38,392.0843,338.1163
39,389.0597,332.11987
40,385.5636,325.7932
41,381.60266,319.15207
42,377.18774,312.2131
43,372.32993,304.9937
44,367.04132,297.5119
45,361.3369,289.7864
46,355.22754,281.83636
47,348.7301,273.6818
48,341.8609,265.3431
49,334.6371,256.84116
50,327.07904,248.19717
51,319.2011,239.43253
52,311.02518,230.56937
53,302.5717,221.62984
54,293.86182,212.6363
55,284.92004,203.61125
56,275.76334,194.57695
57,266.4172,185.55624
58,256.90506,176.5717
59,247.25066,167.64578
60,237.48114,158.8008
61,227.61496,150.05855
62,217.67975,141.44118
63,207.70033,132.97023
64,197.70168,124.666885
65,187.71182,116.55191
66,177.74962,108.64525
67,167.84303,100.96699
68,158.01685,93.53632
69,148.29561,86.371826
70,138.70651,79.49141
71,129.2677,72.91196
72,120.0057,66.65021
73,110.94367,60.721825
74,102.104256,55.14162
75,93.51215,49.92355
76,85.18357,45.08037
77,77.14202,40.624462
78,69.40758,36.566956
79,61.999588,32.918
80,54.93869,29.68671
81,48.23819,26.880936
82,41.917053,24.50791
83,35.99109,22.57356
84,30.475128,21.082724
85,25.38443,20.039124
86,20.728607,19.445202
87,16.52092,19.302603
88,12.771896,19.61168
89,9.4908905,20.371656
90,6.68692,21.580631
91,4.3652344,23.235489
92,2.5326233,25.332184
93,1.1936188,27.86547
94,0.35159302,30.82901
95,0.008682251,34.21539
96,0.16551208,38.016132
97,0.82188416,42.221756
98,1.976181,46.821743
99,3.625473,51.80459
100,5.7649384,57.15782
101,8.390518,62.868145
102,11.495087,68.92122
103,15.070892,75.3019
104,19.108963,81.99424
105,23.597794,88.9815
106,28.528885,96.24636
107,33.88861,103.77052
108,39.663605,111.53518
109,45.839386,119.52091
110,52.398483,127.70775
111,59.32849,136.07545
112,66.61014,144.6029
113,74.22525,153.26877
114,82.15476,162.05138
115,90.376305,170.92879
116,98.87435,179.87907
117,107.6252,188.87961
118,116.606964,197.90788
119,125.79718,206.94133
120,135.17001,215.95735
121,144.70773,224.93373
122,154.38368,233.84773
123,164.17365,242.67708
124,174.05318,251.39969
125,183.99454,259.99374
126,193.97891,268.4381
127,203.97836,276.71136
128,213.96785,284.79282
129,223.92242,292.66226
130,233.8142,300.30002
131,243.62447,307.68735
132,253.32568,314.80545
133,262.8936,321.63654
134,272.3043,328.1635
135,281.53146,334.3701
136,290.55765,340.24106
137,299.35748,345.76144
138,307.90894,350.91742
139,316.1906,355.69614
140,324.17947,360.08566
141,331.8604,364.07526
142,339.2117,367.6547
143,346.215,370.81503
144,352.85278,373.5484
145,359.10663,375.84793
146,364.96472,377.70807
147,370.4104,379.12402
148,375.4301,380.0922
149,380.0113,380.61023
150,384.1413,380.6768
151,387.81232,380.29187
152,391.01385,379.4563
153,393.73785,378.17215
154,395.9776,376.44266
155,397.72696,374.27213
156,398.98267,371.66605
157,399.74097,368.6309
158,399.99994,365.17422
159,399.75894,361.3047
160,399.01892,357.032
161,397.78122,352.36682
162,396.04913,347.32077
163,393.82697,341.9065
164,391.12024,336.13757
165,387.93683,330.02838
166,384.2827,323.59415
167,380.1679,316.85095
168,375.60275,309.81573
169,370.59863,302.50607
170,365.16974,294.94022
171,359.3264,287.13696
172,353.08475,279.1159
173,346.46045,270.89716
174,339.46997,262.50122
175,332.1332,253.94913
176,324.46393,245.26202
177,316.48352,236.4618
178,308.2119,227.57051
179,299.6698,218.61035
180,290.8813,209.60374
181,281.8629,200.5729
182,272.6399,191.54068
183,263.2353,182.52966
184,253.67264,173.56238
185,243.97878,164.66124
186,234.17203,155.84819
187,224.27988,147.14554
188,214.32703,138.57506
189,204.33835,130.15817
190,194.34189,121.91593
191,184.35652,113.86861
192,174.41025,106.03661
193,164.52795,98.439545
194,154.73433,91.09639
195,145.0568,84.025505
196,135.51364,77.244255
197,126.131676,70.76988
198,116.93437,64.618576
199,107.94472,58.805714
200,99.18781,53.345825
201,90.68021,48.252274
202,82.44587,43.53806
203,74.50541,39.21497
204,66.87865,35.293808
205,59.586838,31.784382
206,52.643753,28.695219
207,46.06903,26.034271
208,39.87909,23.808187
209,34.089417,22.022532
210,28.71608,20.681767
211,23.769196,19.789064
212,19.262848,19.346828
213,15.208313,19.35616
214,11.615723,19.81703
215,8.494919,20.728289
216,5.851822,22.087553
217,3.6940308,23.891523
218,2.0269928,26.135689
219,0.8548279,28.814432
220,0.18061829,31.921055
221,0.005630493,35.44777
222,0.33058167,39.385784
223,1.1546631,43.725254
224,2.4758148,48.45532
225,4.2901154,53.56415
226,6.594116,59.039043
227,9.381607,64.86626
228,12.645584,71.03122
229,16.377914,77.51852
230,20.567902,84.31191
231,25.207657,91.39458
232,30.284348,98.74868
233,35.785294,106.355835
234,41.696747,114.19701
235,48.001923,122.252594
236,54.68895,130.50267
237,61.739197,138.92642
238,69.135086,147.50279
239,76.85809,156.21031
240,84.886444,165.02724
241,93.20495,173.93178
242,101.79043,182.90143
243,110.621414,191.91376
244,119.67581,200.94626
245,128.92816,209.97632
246,138.36096,218.98167
247,147.94786,227.93954
248,157.66487,236.82751
249,167.4877,245.62337
250,177.38878,254.30511
251,187.3494,262.85138
252,197.34163,271.24048
253,207.34052,279.45148
254,217.32104,287.46384
255,227.25526,295.25748
256,237.12439,302.8133
257,246.9007,310.1121
258,256.55978,317.1356
259,266.07745,323.86624
260,275.42715,330.2872
261,284.59116,336.38275
262,293.5437,342.1374
263,302.26242,347.53668
264,310.7255,352.56717
265,318.90933,357.21628
266,326.79846,361.47263
267,334.3706,365.32532
268,341.60687,368.76474
269,348.48914,371.7823
270,354.9983,374.37042
271,361.12207,376.5229
272,366.84302,378.2341
273,372.1469,379.4998
274,377.02045,380.31677
275,381.45026,380.683
276,385.42786,380.59778
277,388.94193,380.06113
278,391.98367,379.07437
279,394.54553,377.64
280,396.62048,375.76163
281,398.20465,373.444
282,399.29333,370.69284
283,399.88385,367.51505
284,399.97467,363.91852
285,399.5658,359.9123
286,398.65802,355.50635
287,397.25366,350.7117
288,395.35617,345.54037
289,392.97034,340.0053
290,390.1031,334.12033
291,386.75983,327.90002
292,382.9497,321.36005
293,378.68222,314.51675
294,373.96808,307.38727
295,368.8207,299.98938
296,363.24982,292.34146
297,357.2708,284.46277
298,350.89868,276.373
299,344.14932,268.09235
300,337.04187,259.6416
301,329.5897,251.0416
302,321.8136,242.31404
303,313.73297,233.48076
304,305.36804,224.56386
305,296.7424,215.58562
306,287.8723,206.5682
307,278.7826,197.53442
308,269.4959,188.50685
309,260.0355,179.50807
310,250.42798,170.56058
311,240.69148,161.68642
312,230.85327,152.90808
313,220.93793,144.24751
314,210.97025,135.72636
315,200.9782,127.36594
316,190.98064,119.1868
317,181.00565,111.2097
318,171.07812,103.4546
319,161.2229,95.94087
320,151.46758,88.68732
321,141.83058,81.71173
322,132.33899,75.03186
323,123.01655,68.6644
324,113.886536,62.625275
325,104.97448,56.92958
326,96.29722,51.59126
327,87.87918,46.62393
328,79.74142,42.040016
329,71.9043,37.850975
330,64.38962,34.067276
331,57.21158,30.698128
332,50.390488,27.752188
333,43.94339,25.236822
334,37.886414,23.158316
335,32.236343,21.521862
336,27.00383,20.331364
337,22.203796,19.58998
338,17.84822,19.299557
339,13.947983,19.460815
340,10.513794,20.073353
341,7.55217,21.135525
342,5.0716095,22.644787
343,3.078354,24.597364
344,1.5773468,26.988367
345,0.57258606,29.811815
346,0.065963745,33.06062
347,0.059143066,36.726692
348,0.552124,40.800865
349,1.5436707,45.272945
350,3.0308075,50.131756
351,5.010681,55.365196
352,7.478012,60.960144
353,10.42659,66.9026
354,13.84906,73.17772
355,17.735626,79.7698
356,22.078903,86.66249
357,26.866974,93.83844
358,32.087814,101.27972
359,37.728424,108.96771
360,43.77275,116.883194
361,50.209396,125.006584
362,57.020493,133.31738
363,64.18901,141.79482
364,71.69702,150.4177
365,79.52334,159.16443
366,87.653145,168.01344
367,96.063805,176.94237
368,104.734276,185.92888
369,113.6429,194.9505
370,122.76457,203.98468
371,132.08208,213.00914
372,141.56937,222.00104
373,151.2027,230.9379
374,160.95804,239.79736
375,170.80794,248.55728
376,180.73381,257.1961
377,190.70784,265.69193
378,200.70511,274.0235
379,210.7006,282.16998
380,220.66632,290.11102
381,230.58342,297.82712
382,240.42407,305.29865
383,250.16367,312.50693
384,259.77786,319.434
385,269.23978,326.06247
386,278.5315,332.3761
387,287.62692,338.35883
388,296.5033,343.9957
389,305.13843,349.27264
390,313.50824,354.17645
391,321.5969,358.69513
392,329.38156,362.81714
393,336.84283,366.53223
394,343.962,369.83105
395,350.7193,372.70538
396,357.10196,375.1483
397,363.0919,377.15344
398,368.67413,378.71585
399,373.83472,379.83163
400,378.5594,380.49796
401,382.83917,380.71338
402,386.66193,380.4772
403,390.01807,379.79
404,392.89923,378.65356
405,395.2975,377.07074
406,397.20837,375.04553
407,398.62625,372.583
408,399.54764,369.68933
409,399.97018,366.37173
410,399.89294,362.63858
411,399.3161,358.49924
412,398.24097,353.96405
413,396.6703,349.0444
414,394.60797,343.75266
415,392.06006,338.10208
416,389.0313,332.10678
417,385.53,325.78183
418,381.56494,319.14316
419,377.146,312.20743
420,372.28577,304.99203
421,366.99344,297.51495
422,361.2837,289.79514
423,355.17075,281.852
424,348.66992,273.70544
425,341.7996,265.37607
426,334.57275,256.88458
427,327.00952,248.2526
428,319.12878,239.50182
429,310.95026,230.65439
430,302.497,221.73262
431,293.785,212.7588
432,284.83853,203.7559
433,275.68,194.74672
434,266.33228,185.75415
435,256.82166,176.80103
436,247.16612,167.90985
437,237.39268,159.1036
438,227.52577,150.40482
439,217.59006,141.83583
440,207.61342,133.4187
441,197.6147,125.17485
442,187.62195,117.12598
443,177.66014,109.29309
444,167.75418,101.696754
445,157.93181,94.35704
446,148.21158,87.293175
447,138.62082,80.52447
448,129.18349,74.06932
449,119.92319,67.945526
450,110.86579,62.170235
451,102.02842,56.75962
452,93.43594,51.729755
453,85.10986,47.095737
454,77.070984,42.87195
455,69.341705,39.072056
456,61.936646,35.708763
457,54.87671,32.79455
458,48.17955,30.340979
459,41.861908,28.358915
460,35.94133,26.858583
461,30.429,25.84939
462,25.340546,25.340546
