no,raw,smooth
0,285.24048,203.93219
1,276.0937,194.89793
2,266.75104,185.87617
3,257.2473,176.89008
4,247.5946,167.9615
5,237.82884,159.11339
6,227.96858,150.36723
7,218.03236,141.74487
8,208.05716,133.2685
9,198.0557,124.95865
10,188.0652,116.836754
11,178.10452,108.922485
12,168.19252,101.23559
13,158.36606,93.79593
14,148.6377,86.62147
15,139.04361,79.73078
16,129.60184,73.14047
17,120.330315,66.86699
18,111.26355,60.926617
19,102.41314,55.333626
20,93.812004,50.10257
21,85.47615,45.245968
22,77.421585,40.775948
23,69.67825,36.704212
24,62.256073,33.040432
25,55.182632,29.794249
26,48.470993,26.973318
27,42.13417,24.584688
28,36.195724,22.634747
29,30.663254,21.127974
30,25.557312,20.068499
31,20.887192,19.458632
32,16.66211,19.299904
33,12.897751,19.592993
34,9.598953,20.336908
35,6.778,21.530014
36,4.4397583,23.169128
37,2.589096,25.25017
38,1.2328949,27.768068
39,0.3728943,30.716423
40,0.012283325,34.08793
41,0.15130615,37.87411
42,0.7901459,42.065536
43,1.9264069,46.65169
44,3.55867,51.621166
45,5.680847,56.961445
46,8.288483,62.65929
47,11.37709,68.70049
48,14.935196,75.06976
49,18.958221,81.75138
50,23.431229,88.7284
51,28.345352,95.98364
52,33.69171,103.499016
53,39.450394,111.25539
54,45.614075,119.23373
55,52.159805,127.41369
56,59.07486,135.77524
57,66.34656,144.2975
58,73.9478,152.95872
59,81.86889,161.73773
60,90.08035,170.61205
61,98.56644,179.56001
62,107.31133,188.5593
63,116.282524,197.58685
64,125.46853,206.62068
65,134.83519,215.63759
66,144.36465,224.61563
67,154.03903,233.53241
68,163.82239,242.36502
69,173.70218,251.092
70,183.64165,259.69086
71,193.622,268.14078
72,203.62437,276.42065
73,213.6116,284.50916
74,223.57089,292.38666
75,233.4652,300.03287
76,243.2759,307.42926
77,252.98438,314.55743
78,262.5545,321.3989
79,271.9741,327.93716
80,281.20804,334.15527
81,290.2391,340.03833
82,299.05005,345.5716
83,307.6081,350.74066
84,315.90228,355.53317
85,323.90176,359.93658
86,331.5917,363.94046
87,338.95728,367.53476
88,345.97113,370.71005
89,352.6242,373.45883
90,358.89188,375.7738
91,364.76254,377.64957
92,370.22482,379.08145
93,375.25836,380.06552
94,379.85675,380.59964
95,384.00284,380.6822
96,387.68927,380.31326
97,390.9086,379.4937
98,393.6489,378.2254
99,395.90665,376.5117
100,397.6734,374.3567
101,398.94635,371.76596
102,399.7226,368.74594
103,399.99927,365.3041
104,399.776,361.4491
105,399.05362,357.19055
106,397.83392,352.5391
107,396.11884,347.50635
108,393.91467,342.10498
109,391.22424,336.34836
110,388.05762,330.25104
111,384.42117,323.8281
112,380.32135,317.09555
113,375.77338,310.07047
114,370.78314,302.77014
115,365.36914,295.21317
116,359.542,287.41806
117,353.31235,279.4043
118,346.70337,271.1923
119,339.7235,262.8022
120,332.39877,254.25539
121,324.74326,245.57278
122,316.77112,236.77606
123,308.51205,227.88773
124,299.9766,218.92947
125,291.1965,209.92424
126,282.18857,200.894
127,272.96964,191.86127
128,263.57397,182.84923
129,254.01361,173.87982
130,244.32408,164.97606
131,234.52382,156.15962
132,224.63126,147.4525
133,214.68317,138.87709
134,204.6923,130.4542
135,194.6958,122.20552
136,184.71254,114.15105
137,174.76143,106.31088
138,164.87944,98.70527
139,155.07925,91.352585
140,145.39731,84.27184
141,135.85176,77.480125
142,126.4608,70.99439
143,117.25934,64.83146
144,108.25916,59.00614
145,99.493744,53.533585
146,90.97941,48.426903
147,82.73248,43.698845
148,74.78366,39.361774
149,67.14308,35.42601
150,59.839172,31.901892
151,52.88542,28.79775
152,46.295303,26.121344
153,40.093307,23.879793
154,34.2874,22.078293
155,28.899124,20.721725
156,23.938324,19.813128
157,19.414734,19.354773
158,15.345184,19.348112
159,11.734909,19.792881
160,8.597305,20.688211
161,5.9378815,22.031647
162,3.762085,23.819843
163,2.078003,26.048483
164,0.88783264,28.71187
165,0.19596863,31.80343
166,0.0032653809,35.315372
167,0.31054688,39.23894
168,1.1166687,43.56432
169,2.4205933,48.280727
170,4.2174835,53.3763
171,6.503479,58.83839
172,9.2747345,64.65338
173,12.52092,70.806564
174,16.237885,77.28275
175,20.41182,84.06552
176,25.034393,91.13815
177,30.097305,98.48302
178,35.581726,106.081436
179,41.480606,113.91474
180,47.772064,121.96298
181,54.443817,130.20642
182,61.483597,138.62448
183,68.86525,147.1957
184,76.57931,155.89908
185,84.5971,164.71239
186,92.9032,173.61409
187,101.48216,182.58197
188,110.30209,191.59306
189,119.35171,200.6254
190,128.59734,209.65582
191,138.02136,218.66234
192,147.6061,227.62245
193,157.31593,236.51317
194,167.13843,245.31287
195,177.03705,253.99893
196,186.99304,262.55026
197,196.98763,270.94553
198,206.98366,279.16306
199,216.96832,287.18298
200,226.90448,294.98462
201,236.77344,302.54907
202,246.55646,309.85748
203,256.21716,316.89093
204,265.7432,323.63248
205,275.09912,330.06464
206,284.26746,336.1719
207,293.23062,341.93906
208,301.95538,347.3511
209,310.43048,352.3951
210,318.62448,357.05783
211,326.5221,361.3282
212,334.10815,365.19553
213,341.3545,368.64966
214,348.25177,371.68246
215,354.77432,374.2859
216,360.91022,376.45386
217,366.64752,378.18094
218,371.96484,379.46243
219,376.8554,380.29553
220,381.30103,380.67776
221,385.29373,380.60852
222,388.82553,380.08795
223,391.88327,379.1171
224,394.46307,377.69864
225,396.55536,375.8359
226,398.1566,373.53375
227,399.26328,370.7979
228,399.87134,367.6351
229,399.97998,364.0533
230,399.5888,360.0615
231,398.699,355.66956
232,397.31183,350.88852
233,395.43237,345.7304
234,393.0631,340.20798
235,390.2128,334.3352
236,386.88727,328.1266
237,383.09244,321.59763
238,378.84235,314.7649
239,374.14246,307.64517
240,369.01025,300.2566
241,363.4558,292.6173
242,357.48926,284.74637
243,351.1328,276.66385
244,344.39453,268.38953
245,337.2995,259.94452
246,329.86148,251.34952
247,322.09418,242.62598
248,314.02652,233.79617
249,305.66882,224.8817
250,297.05212,215.90536
251,288.19296,206.88905
252,279.10788,197.8553
253,269.83063,188.82724
254,260.37314,179.82687
255,250.77051,170.8773
256,241.04105,162.00027
257,231.20302,153.21797
258,221.29303,144.55298
259,211.32373,136.02632
260,201.33223,127.65994
261,191.33739,119.47414
262,181.35811,111.489334
263,171.43152,103.72614
264,161.57028,96.20333
265,151.81111,88.94034
266,142.17233,81.9547
267,132.67227,75.263855
268,123.346245,68.88515
269,114.20622,62.83392
270,105.286156,57.125885
271,96.602715,51.774742
272,88.17253,46.793858
273,80.02695,42.196228
274,72.176384,37.992813
275,64.65004,34.194637
276,57.461853,30.810705
277,50.625687,27.849466
278,44.166977,25.318775
279,38.09401,23.22453
280,32.429337,21.572367
281,27.183304,20.366037
282,22.36621,19.608564
283,17.995972,19.302158
284,14.078171,19.44729
285,10.627365,20.04386
286,7.6496735,21.090137
287,5.1511536,22.583523
288,3.1410828,24.520452
289,1.6220398,26.895939
290,0.5996704,29.70415
291,0.07545471,32.93798
292,0.050842285,36.589375
293,0.5259247,40.64921
294,1.5000763,45.107353
295,2.9697113,49.952606
296,4.9315643,55.17293
297,7.3824005,60.755306
298,10.31311,66.68563
299,13.71991,72.94925
300,17.590149,79.53029
301,21.916107,86.41252
302,26.689987,93.57879
303,31.894089,101.01088
304,37.521713,108.69053
305,43.55194,116.598175
306,49.973022,124.714424
307,56.773163,133.01903
308,63.927094,141.4908
309,71.425644,150.10898
310,79.24092,158.85158
311,87.35789,167.69722
312,95.76149,176.62381
313,104.42045,185.6085
314,113.32369,194.62941
315,122.43812,203.66339
316,131.7463,212.68843
317,141.23085,221.682
318,150.85648,230.62103
319,160.61086,239.48376
320,170.45773,248.24744
321,180.3784,256.89075
322,190.3542,265.39212
323,200.348,273.72968
324,210.34706,281.8832
325,220.31415,289.8317
326,230.23048,297.55588
327,240.07727,305.0365
328,249.8179,312.2542
329,259.4399,319.1916
330,268.90753,325.83066
331,278.20297,332.15546
332,287.30853,338.1502
333,296.19037,343.7993
334,304.8371,349.08917
335,313.21655,354.00607
336,321.31317,358.53824
337,329.1114,362.67438
338,336.58218,366.40363
339,343.716,369.7171
340,350.48633,372.6061
341,356.8807,375.06387
342,362.88672,377.08423
343,368.48196,378.66174
344,373.65936,379.79282
345,378.3996,380.47433
346,382.69415,380.70486
347,386.53455,380.48386
348,389.90637,379.81158
349,392.80542,378.68997
350,395.2209,377.12158
351,397.1486,375.11053
352,398.58453,372.66187
353,399.52332,369.7816
354,399.96375,366.47696
355,399.90424,362.75623
356,399.34528,358.6287
357,398.2875,354.1046
358,396.73486,349.1954
359,394.68933,343.91324
360,392.1585,338.27145
361,389.1476,332.28403
362,385.66193,325.96585
363,381.7144,319.33298
364,377.31006,312.4017
365,372.4653,305.18967
366,367.1897,297.7146
367,361.4928,289.99515
368,355.3958,282.05096
369,348.9065,273.90155
370,342.04904,265.5677
371,334.83673,257.06976
372,327.2828,248.42899
373,319.41544,239.66745
374,311.24466,230.80656
375,302.80084,221.869
376,294.10025,212.87657
377,285.159,203.85173
378,276.0104,194.8176
379,266.66617,185.79617
380,257.161,176.81062
381,247.51308,167.88281
382,237.74043,159.035
383,227.87943,150.28996
384,217.9427,141.66891
385,207.9672,133.19405
386,197.97177,124.88592
387,187.97533,116.76527
388,178.01503,108.85304
389,168.10364,101.16838
390,158.27798,93.73113
391,148.55658,86.559265
392,138.95787,79.67068
393,129.51756,73.08321
394,120.24774,66.81273
395,111.18287,60.875504
396,102.33989,55.285797
397,93.73572,50.057564
398,85.40234,45.204433
399,77.35045,40.738003
400,69.60997,36.669952
401,62.195236,33.009953
402,55.120544,29.767143
403,48.412247,26.9501
404,42.07892,24.565418
405,36.144073,22.619474
406,30.618591,21.116743
407,25.513306,20.060984
408,20.847153,19.455172
409,16.626144,19.300508
410,12.865967,19.59766
411,9.573288,20.345627
412,6.754776,21.542553
413,4.4209137,23.18564
414,2.5746765,25.27061
415,1.2229309,27.792383
416,0.3677826,30.744545
417,0.011306763,34.119743
418,0.15483093,37.909573
419,0.79815674,42.104546
420,1.9389038,46.694145
421,3.5744476,51.66695
422,5.702179,57.010563
423,8.314163,62.7115
424,11.407043,68.755646
425,14.969345,75.127716
426,18.993896,81.81198
427,23.473541,88.79177
428,28.391571,96.049355
429,33.74173,103.56689
430,39.504105,111.32523
431,45.66745,119.30537
432,52.22046,127.487366
433,59.13878,135.85036
434,66.41354,144.37387
435,74.017715,153.03613
436,81.93662,161.81596
437,90.15559,170.69145
438,98.64404,179.63988
439,107.39113,188.6394
440,116.3643,197.667
441,125.54642,206.70065
442,134.92032,215.71779
443,144.45114,224.69528
444,154.12668,233.6113
445,163.91095,242.44292
446,173.78539,251.1687
447,183.73138,259.76685
448,193.71199,268.21524
449,203.7144,276.4934
450,213.70143,284.58
451,223.65424,292.45538
452,233.55396,300.09998
453,243.3638,307.49396
454,253.0712,314.6195
455,262.64,321.45822
456,272.05237,327.9936
457,281.2903,334.2093
458,290.31946,340.08917
459,299.12827,345.61914
460,307.684,350.7848
461,315.97067,355.57376
462,323.9724,359.9741
463,331.6595,363.97427
464,339.02203,367.56482
465,346.03265,370.73627
466,352.67847,373.4811
467,358.94653,375.7925
468,364.81357,377.6643
469,370.27206,379.09216
470,375.30173,380.07217
471,379.89343,380.60223
472,384.03812,380.681
473,387.72034,380.308
474,390.93542,379.48444
475,393.6714,378.21213
476,395.92352,376.49445
477,397.68707,374.33566
478,398.95557,371.74106
479,399.72733,368.71722
480,399.9995,365.27167
481,399.77203,361.41306
482,399.04486,357.15094
483,397.8207,352.49606
484,396.10117,347.46
485,393.8926,342.05542
486,391.19965,336.29575
487,388.02698,330.1953
488,384.3863,323.76956
489,380.28238,317.03436
490,375.7304,310.00684
491,370.73944,302.70425
492,365.31848,295.1448
493,359.48767,287.34772
494,353.25452,279.33218
495,346.64215,271.1186
496,339.66345,262.7271
497,332.33127,254.17863
498,324.67285,245.49501
499,316.698,236.69748
500,308.4364,227.80853
501,299.9039,218.84988
502,291.11636,209.84389
503,282.1065,200.81363
504,272.8858,191.7811
505,263.4886,182.76947
506,253.93279,173.80067
507,244.23627,164.89711
508,234.43513,156.08165
509,224.5419,147.37572
510,214.59338,138.8017
511,204.6084,130.3804
512,194.60579,122.13284
513,184.62277,114.0803
514,174.6721,106.24225
515,164.79082,98.63894
516,154.99747,91.288734
517,145.3107,84.209984
518,135.76648,77.42102
519,126.37708,70.938194
520,117.177376,64.77832
521,108.18459,58.956207
522,99.41591,53.48639
523,90.90394,48.383106
524,82.65957,43.658573
525,74.713455,39.32513
526,67.08035,35.393097
527,59.774963,31.87229
528,52.824448,28.771992
529,46.2377,26.099497
530,40.039246,23.86192
531,34.240417,22.064438
532,28.852524,20.711552
533,23.895615,19.807001
534,19.376053,19.352713
535,15.310623,19.35012
536,11.706589,19.798954
537,8.571213,20.698107
538,5.9161224,22.04554
539,3.7447205,23.837698
540,2.065094,26.070251
541,0.8799591,28.737494
542,0.1920166,31.832777
543,0.0037994385,35.34842
544,0.31558228,39.2756
545,1.1261902,43.604492
546,2.4336395,48.324306
547,4.235901,53.42327
548,6.5262756,58.888535
549,9.301849,64.706566
550,12.552292,70.86265
551,16.271027,77.34158
552,20.451447,84.1272
553,25.078018,91.202286
554,30.144821,98.54942
555,35.63301,106.14994
556,41.5318,113.98516
557,47.830475,122.03553
558,54.50557,130.28053
559,61.548553,138.69998
560,68.93324,147.27235
561,76.64536,155.9767
562,84.670654,164.7913
563,92.979256,173.6936
564,101.56053,182.66187
565,110.38258,191.67313
566,119.42852,200.70541
567,128.68146,209.73618
568,138.10696,218.74226
569,147.693,227.70175
570,157.4039,236.59161
571,167.22122,245.39026
572,177.1265,254.07571
573,187.08289,262.62564
574,197.07765,271.0193
575,207.07364,279.23502
576,217.05194,287.25296
577,226.9937,295.05307
578,236.86194,302.61523
579,246.64401,309.92117
580,256.30356,316.95197
581,265.82245,323.69067
582,275.18256,330.12048
583,284.3491,336.2247
584,293.31027,341.98868
585,302.0328,347.3974
586,310.50046,352.43793
587,318.69696,357.09766
588,326.5918,361.3644
589,334.17496,365.22803
590,341.41815,368.67838
591,348.30804,371.7073
592,354.83133,374.30722
593,360.96368,376.47122
594,366.69727,378.19427
595,372.0108,379.4717
596,376.8946,380.30072
597,381.33905,380.6792
598,385.3276,380.6059
599,388.85516,380.08127
600,391.90866,379.10638
601,394.48267,377.68393
602,396.57196,375.8174
603,398.16876,373.51135
604,399.271,370.77167
605,399.87454,367.6051
606,399.97876,364.01962
607,399.583,360.0242
608,398.68872,355.62878
609,397.29706,350.84436
610,395.4132,345.68295
611,393.04114,340.15738
612,390.18494,334.28143
613,386.85522,328.06995
614,383.0562,321.53827
615,378.80203,314.70294
616,374.1012,307.5808
617,368.9621,300.18967
618,363.40393,292.5483
619,357.43378,284.67548
620,351.0738,276.59125
621,344.33643,268.3154
622,337.234,259.86862
623,329.79297,251.27248
624,322.02286,242.54799
625,313.95255,233.71745
626,305.59753,224.80246
627,296.9734,215.82524
628,288.11215,206.80878
629,279.02518,197.77507
630,269.74628,188.7473
631,260.2931,179.74742
632,250.68341,170.7979
633,240.95291,161.92172
634,231.11409,153.14049
635,221.20349,144.47676
636,211.23993,135.95157
637,201.24219,127.58619
638,191.24744,119.40219
639,181.26846,111.41938
640,171.3424,103.65837
641,161.48793,96.137924
642,151.72374,88.87681
643,142.08615,81.89382
644,132.5875,75.20579
645,123.2631,68.83005
646,114.13041,62.78193
647,105.20686,57.076546
648,96.52566,51.728733
649,88.09789,46.751297
650,79.954926,42.157234
651,72.11185,37.957493
652,64.58377,34.162567
653,57.398697,30.782433
654,50.565826,27.82507
655,44.110565,25.298319
656,38.044754,23.208069
657,32.38022,21.559547
658,27.138,20.357252
659,22.32486,19.603836
660,17.958649,19.3015
661,14.047241,19.450706
662,10.598434,20.051092
663,7.6250305,21.101389
664,5.1308594,22.598763
665,3.1251984,24.53964
666,1.6113892,26.919025
667,0.59272766,29.730986
668,0.07299805,32.96857
669,0.052886963,36.623634
670,0.5324707,40.687054
671,1.510376,45.148678
672,2.985199,49.99738
673,4.951462,55.22096
674,7.406662,60.806458
675,10.34166,66.73977
676,13.750473,73.006226
677,17.62709,79.5902
678,21.957092,86.47499
679,26.734955,93.64365
680,31.942886,101.07795
681,37.570663,108.75963
682,43.608047,116.66952
683,50.032578,124.78747
684,56.836014,133.09357
685,63.993103,141.56662
686,71.489944,150.18591
687,79.312706,158.9299
688,87.432304,167.77626
689,95.83833,176.70337
690,104.49955,185.68839
691,113.39934,194.70938
692,122.52112,203.74384
693,131.83095,212.7686
694,141.31693,221.76169
695,150.94376,230.7
696,160.69315,239.56181
697,170.54678,248.325
698,180.46802,256.96704
699,190.44414,265.46695
700,200.43805,273.80283
701,210.43088,281.95447
702,220.40372,289.90155
703,230.31947,297.62354
704,240.16548,305.10178
705,249.9051,312.31693
706,259.52005,319.2516
707,268.99203,325.88846
708,278.28583,332.2103
709,287.38953,338.2019
710,296.2693,343.84775
711,304.90857,349.13425
712,313.29077,354.04822
713,321.38474,358.57684
714,329.1801,362.70932
715,336.64795,366.4348
716,343.77435,369.74448
717,350.54565,372.63004
718,356.93655,375.08386
719,362.93893,377.10022
720,368.53046,378.6737
721,373.701,379.80072
722,378.4403,380.4785
723,382.73077,380.70496
724,386.567,380.4799
725,389.9346,379.80356
726,392.8277,378.6779
727,395.24042,377.10568
728,397.16373,375.09073
729,398.5952,372.63818
730,399.5295,369.75406
731,399.96533,366.4457
732,399.90143,362.7213
733,399.33795,358.5902
734,398.27573,354.06268
735,396.71863,349.15012
736,394.6701,343.86472
737,392.1335,338.2197
738,389.11835,332.22928
739,385.62842,325.90826
740,381.67676,319.2727
741,377.2712,312.33896
742,372.41968,305.12427
743,367.14026,297.647
744,361.43964,289.92554
745,355.3391,281.97955
746,348.85046,273.8285
747,341.98566,265.4927
748,334.7702,256.9935
749,327.21335,248.35165
750,319.3432,239.58926
751,311.1749,230.72772
752,302.72363,221.78915
753,294.02078,212.79643
754,285.07755,203.7715
755,275.92712,194.7375
756,266.58704,185.71643
757,257.07474,176.7308
758,247.42561,167.80371
759,237.65201,158.95683
760,227.79027,150.21294
761,217.8591,141.59323
762,207.87723,133.11925
763,197.88174,124.81281
764,187.88547,116.694046
765,177.92555,108.78388
766,168.02078,101.10148
767,158.18994,93.666
768,148.46957,86.49667
769,138.87213,79.6108
770,129.43332,73.02621
771,120.17077,66.75875
772,111.1022,60.82408
773,102.26132,55.237625
774,93.65945,50.01277
775,85.32857,45.163143
776,77.28416,40.70032
777,69.5417,36.635452
778,62.12999,32.979206
779,55.058502,29.74023
780,48.353546,26.92709
781,42.02742,24.546371
782,36.09247,22.604034
783,30.57074,21.10532
784,25.469315,20.053608
785,20.807144,19.451862
786,16.592651,19.301275
787,12.834213,19.602234
788,9.545792,20.354237
789,6.731598,21.555176
790,4.4020996,23.20224
791,2.561264,25.291145
792,1.2130127,27.816689
793,0.36235046,30.772654
794,0.010375977,34.151577
795,0.15838623,37.945045
796,0.8059387,42.143566
797,1.9514313,46.736637
798,3.5914154,51.712772
799,5.722824,57.05959
800,8.339859,62.763676
801,11.43602,68.81077
802,15.003555,75.185745
803,19.032211,81.87266
804,23.514435,88.854935
805,28.437836,96.115
806,33.790085,103.63469
807,39.55783,111.39521
808,45.72473,119.37715
809,52.279083,127.56076
810,59.202713,135.9254
811,66.4783,144.45015
812,74.087654,153.1137
813,82.009315,161.89436
814,90.228294,170.7705
815,98.72167,179.71964
816,107.46823,188.71942
817,116.4461,197.74733
818,125.63,206.7808
819,135.00258,215.79756
820,144.53763,224.77478
821,154.21133,233.69002
822,163.99951,242.521
823,173.87463,251.24562
824,183.81808,259.8424
825,193.80199,268.28955
826,203.80138,276.56595
827,213.79126,284.6509
828,223.74364,292.52423
829,233.63971,300.16653
830,243.45169,307.5584
831,253.15504,314.6814
832,262.72552,321.51767
833,272.13635,328.05014
834,281.36978,334.26282
835,290.39978,340.13983
836,299.2038,345.6665
837,307.75983,350.82904
838,316.044,355.61453
839,324.04065,360.01126
840,331.72723,364.00803
841,339.08453,367.5948
842,346.09418,370.7626
843,352.73657,373.50357
844,358.99933,375.81104
845,364.86456,377.67902
846,370.3177,379.10284
847,375.34503,380.07898
848,379.93274,380.60498
849,384.07214,380.67966
850,387.7514,380.3027
851,390.9613,379.47507
852,393.69385,378.19882
853,395.9416,376.47717
854,397.70026,374.31448
855,398.96475,371.71606
856,399.73187,368.68845
857,399.9997,365.2392
858,399.7677,361.37692
859,399.03632,357.1113
860,397.80743,352.45297
861,396.08405,347.4136
862,393.8705,342.0058
863,391.17322,336.24307
864,387.9973,330.13974
865,384.35144,323.71112
866,380.2447,316.9733
867,375.68744,309.94315
868,370.69254,302.6382
869,365.2695,295.07663
870,359.43335,287.27744
871,353.1986,279.26013
872,346.58093,271.04474
873,339.599,262.65186
874,332.26605,254.1022
875,324.60245,245.41733
876,316.62735,236.61897
877,308.36075,227.72916
878,299.82587,218.7701
879,291.0389,209.7639
880,282.02438,200.73334
881,272.8048,191.701
882,263.4032,182.68947
883,253.84608,173.72128
884,244.15144,164.81853
885,234.34644,156.00377
886,224.45558,147.29903
887,214.50359,138.72607
888,204.51837,130.30635
889,194.51884,122.06058
890,184.533,114.00966
891,174.58583,106.17374
892,164.70218,98.57239
893,154.90976,91.22463
894,145.22702,84.14851
895,135.68123,77.362015
896,126.29621,70.8821
897,117.095436,64.72498
898,108.104614,58.906048
899,99.34074,53.43954
900,90.828476,48.33941
901,82.589134,43.618404
902,74.64329,39.288322
903,67.01309,35.359997
904,59.71295,31.842987
905,52.763504,28.746325
906,46.182114,26.077751
907,39.985214,23.843933
908,34.19005,22.050457
909,28.807526,20.701614
910,23.852951,19.800959
911,19.338715,19.350737
912,15.276093,19.352072
913,11.67627,19.804958
914,8.546036,20.708145
915,5.894394,22.059492
916,3.7279816,23.855614
917,2.0522003,26.092018
918,0.87153625,28.763111
919,0.18821716,31.862175
920,0.0043792725,35.381504
921,0.32048035,39.312294
922,1.1357574,43.64472
923,2.447647,48.36794
924,4.253723,53.470192
925,6.549118,58.93869
926,9.3280945,64.75976
927,12.58371,70.91883
928,16.306625,77.40051
929,20.489792,84.18873
930,25.121704,91.26639
931,30.190765,98.6158
932,35.68431,106.21859
933,41.58676,114.05574
934,47.886932,122.10785
935,54.567368,130.35461
936,61.611343,138.77542
937,69.00125,147.34921
938,76.716255,156.05453
939,84.74172,164.8699
940,93.05532,173.77304
941,101.63626,182.74168
942,110.46308,191.7534
943,119.51094,200.78566
944,128.76273,209.8162
945,138.1926,218.82214
946,147.77695,227.78099
947,157.49188,236.67033
948,167.31004,245.46794
949,177.2129,254.15216
950,187.17274,262.701
951,197.16463,271.09302
952,207.16362,279.30728
953,217.14165,287.32324
954,227.07988,295.1212
955,236.95042,302.68137
956,246.72859,309.98483
957,256.38995,317.0133
958,265.90747,323.74924
959,275.26318,330.1761
960,284.43073,336.27753
961,293.3872,342.03827
962,302.11023,347.44397
963,310.5755,352.48105
964,318.76694,357.1372
965,326.6615,361.40057
966,334.23944,365.2605
967,341.4818,368.70728
968,348.36847,371.73233
969,354.88638,374.3283
970,361.0171,376.48853
971,366.74533,378.20758
972,372.0567,379.48117
973,376.93658,380.30612
974,381.37573,380.6805
975,385.36145,380.60327
976,388.8838,380.07462
977,391.934,379.09583
978,394.50366,377.66937
979,396.588,375.7989
980,398.1809,373.48898
981,399.27838,370.74545
982,399.87772,367.57513
983,399.97745,363.98596
984,399.5774,359.9869
985,398.6784,355.58798
986,397.2828,350.80017
987,395.39404,345.63544
988,393.0176,340.10672
989,390.15802,334.22775
990,386.8231,328.01328
991,383.02112,321.47885
992,378.76166,314.6408
993,374.05685,307.5163
994,368.91553,300.12292
995,363.352,292.4793
996,357.3801,284.60458
997,351.01477,276.51843
998,344.2741,268.24106
999,337.17072,259.79297
1000,329.7245,251.19547
1001,321.95395,242.47003
1002,313.87854,233.6385
1003,305.52106,224.72296
1004,296.8973,215.74539
1005,288.0313,206.72852
1006,278.94525,197.69487
1007,269.66187,188.66705
1008,260.20724,179.66763
1009,250.59926,170.7188
1010,240.86479,161.8432
1011,231.02815,153.06303
1012,221.11397,144.40025
1013,211.15004,135.87651
1014,201.15521,127.512794
1015,191.15749,119.33031
1016,181.18187,111.34951
1017,171.2533,103.59036
1018,161.39957,96.072266
1019,151.63933,88.813675
1020,141.99997,81.833046
1021,132.5056,75.147835
1022,123.179955,68.77475
1023,114.0491,62.729725
1024,105.13029,57.027573
1025,96.44862,51.68283
1026,88.02581,46.708855
1027,79.88292,42.11808
1028,72.04263,37.921986
1029,64.519775,34.130802
1030,57.335587,30.754251
1031,50.50804,27.80077
1032,44.05417,25.27774
1033,37.991943,23.191471
1034,32.332764,21.546974
1035,27.092743,20.348555
1036,22.284943,19.599201
1037,17.921387,19.300785
1038,14.014114,19.454052
1039,10.570496,20.05849
1040,7.6004333,21.112715
1041,5.111313,22.614079
1042,3.109375,24.55883
1043,1.5999908,26.942104
1044,0.5860443,29.757895
1045,0.07058716,32.99921
1046,0.054901123,36.657948
1047,0.53904724,40.724953
1048,1.5214386,45.190052
1049,3.000183,50.042118
1050,4.97139,55.269
1051,7.43013,60.857624
1052,10.3702545,66.794014
1053,13.783295,73.063324
1054,17.662811,79.65
1055,21.998138,86.53747
1056,26.778412,93.7085
1057,31.991714,101.14519
1058,37.623215,108.82891
1059,43.662292,116.740654
1060,50.092163,124.86048
1061,56.89679,133.16808
1062,64.05911,141.64267
1063,71.558945,150.26306
1064,79.38209,159.00797
1065,87.50674,167.8553
1066,95.9126,176.78293
1067,104.57867,185.76852
1068,113.48051,194.78963
1069,122.60131,203.82397
1070,131.91559,212.84872
1071,141.40009,221.84131
1072,151.03105,230.77922
1073,160.78143,239.64014
1074,170.63283,248.40222
1075,180.55762,257.04327
1076,190.53102,265.5417
1077,200.52809,273.8762
1078,210.52078,282.026
1079,220.49023,289.97104
1080,230.40848,297.69116
1081,240.25069,305.167
1082,249.99228,312.37994
1083,259.60602,319.31192
1084,269.07367,325.94592
1085,278.36865,332.26505
1086,287.46777,338.25354
1087,296.3482,343.89642
1088,304.98523,349.17957
1089,313.36243,354.09006
1090,321.4563,358.61536
1091,329.24652,362.74414
1092,336.71368,366.4661
1093,343.83694,369.77194
1094,350.60287,372.65363
1095,356.99234,375.1037
1096,362.98935,377.1161
1097,368.57892,378.68576
1098,373.7456,379.80878
1099,378.47955,380.48245
1100,382.76736,380.705
1101,386.5983,380.47583
1102,389.96277,379.79556
1103,392.85156,378.6659
1104,395.25925,377.08972
1105,397.17883,375.0709
1106,398.60547,372.61444
1107,399.53564,369.72656
1108,399.96698,366.41446
1109,399.89868,362.6864
1110,399.33063,358.5517
1111,398.2643,354.0207
1112,396.7024,349.10477
1113,394.6494,343.81616
1114,392.10934,338.16803
1115,389.08905,332.17456
1116,385.59604,325.85074
1117,381.6391,319.21237
1118,377.2295,312.27606
1119,372.3756,305.05902
1120,367.0908,297.57944
1121,361.3883,289.85596
1122,355.28235,281.90793
1123,348.79028,273.75522
1124,341.92438,265.418
1125,334.70367,256.9173
1126,327.1462,248.27435
1127,319.27094,239.51083
1128,311.10004,230.6486
1129,302.649,221.70956
1130,293.9413,212.71631
1131,284.9988,203.69131
1132,275.8438,194.65715
1133,266.50214,185.63641
1134,256.99136,176.65135
1135,247.33813,167.72469
1136,237.56657,158.87875
1137,227.70111,150.13567
1138,217.76942,141.51729
1139,207.7903,133.04483
1140,197.79172,124.73978
1141,187.79863,116.622894
1142,177.83606,108.714485
1143,167.93192,101.03431
1144,158.10489,93.60125
1145,148.38258,86.43418
1146,138.78932,79.551025
1147,129.34906,72.969
1148,120.088234,66.70455
1149,111.0243,60.773033
1150,102.182785,55.18956
1151,93.58579,49.968094
1152,85.254814,45.121685
1153,77.21307,40.66245
1154,69.475784,36.601273
1155,62.064774,32.948547
1156,54.99858,29.713411
1157,48.29486,26.903948
1158,41.972214,24.52718
1159,36.04265,22.588842
1160,30.522919,21.093975
1161,25.42685,20.046314
1162,20.767181,19.448479
1163,16.556763,19.301958
1164,12.803574,19.606981
1165,9.518326,20.362915
1166,6.709244,21.567871
1167,4.3833313,23.21883
1168,2.546936,25.311663
1169,1.2034607,27.841078
1170,0.3569641,30.800814
1171,0.009506226,34.183464
1172,0.1619873,37.98057
1173,0.8137512,42.18264
1174,1.963562,46.779182
1175,3.608429,51.758698
1176,5.744217,57.108727
1177,8.365601,62.815895
1178,11.465027,68.86593
1179,15.036621,75.24381
1180,19.070572,81.9335
1181,23.556824,88.918274
1182,28.48413,96.18066
1183,33.838486,103.7025
1184,39.609787,111.46517
1185,45.782043,119.44911
1186,52.339798,127.634346
1187,59.266663,136.00041
1188,66.54306,144.52638
1189,74.15526,153.1912
1190,82.08202,161.97296
1191,90.303566,170.84973
1192,98.799324,179.79932
1193,107.54535,188.79933
1194,116.52513,197.82756
1195,125.71358,206.86118
1196,135.08774,215.8776
1197,144.62415,224.85425
1198,154.29602,233.7687
1199,164.08508,242.59901
1200,173.96391,251.32278
1201,183.90782,259.9182
1202,193.89197,268.3638
1203,203.88834,276.63846
1204,213.87804,284.72183
1205,223.83304,292.59335
1206,233.72845,300.2334
1207,243.53957,307.62286
1208,253.23889,314.74326
1209,262.8081,321.5771
1210,272.22034,328.10696
1211,281.45203,334.3166
1212,290.48007,340.19043
1213,299.27933,345.7138
1214,307.8331,350.87323
1215,316.1173,355.65546
1216,324.11127,360.0486
1217,331.79498,364.04166
1218,339.14703,367.62463
1219,346.15356,370.78882
1220,352.7947,373.5261
1221,359.0539,375.8296
1222,364.91553,377.69354
1223,370.36328,379.11334
1224,375.38687,380.0856
1225,379.97205,380.60767
1226,384.10736,380.6783
1227,387.7824,380.29733
1228,390.98712,379.46567
1229,393.71548,378.1855
1230,395.9596,376.45993
1231,397.71387,374.29333
1232,398.97388,371.69107
1233,399.73633,368.65964
1234,399.99982,365.2067
1235,399.76334,361.34082
1236,399.0275,357.07166
1237,397.79413,352.4099
1238,396.0669,347.36722
1239,393.84912,341.95615
1240,391.14676,336.19028
1241,387.96655,330.084
1242,384.3165,323.65262
1243,380.20697,316.9122
1244,375.6458,309.87946
1245,370.6456,302.57208
1246,365.21878,295.00836
1247,359.37897,287.2072
1248,353.1427,279.18814
1249,346.52173,270.97098
1250,339.53452,262.57645
1251,332.1985,254.02556
1252,324.53198,245.33968
1253,316.5567,236.54053
1254,308.28763,227.64984
1255,299.74786,218.6901
1256,290.95874,209.68367
1257,281.94226,200.65312
1258,272.72375,191.621
1259,263.3207,182.6096
1260,253.75937,173.6417
1261,244.06363,164.73975
1262,234.25774,155.926
1263,224.36925,147.22246
1264,214.41682,138.6506
1265,204.42836,130.23213
1266,194.42883,121.988106
1267,184.44324,113.93913
1268,174.49954,106.10535
1269,164.61656,98.50599
1270,154.82204,91.16038
1271,145.14044,84.08687
1272,135.59598,77.30314
1273,126.215355,70.82616
1274,117.01629,64.67181
1275,108.02466,58.85576
1276,99.26294,53.392548
1277,90.75305,48.295837
1278,82.51873,43.57837
1279,74.57553,39.251663
1280,66.94585,35.32679
1281,59.64879,31.81356
1282,52.702576,28.720757
1283,46.126526,26.05611
1284,39.933044,23.826065
1285,34.13971,22.0364
1286,28.760986,20.691587
1287,23.810333,19.794989
1288,19.301422,19.34884
1289,15.242767,19.35411
1290,11.645966,19.810926
1291,8.52002,20.718145
1292,5.872711,22.073494
1293,3.7112885,23.873583
1294,2.039795,26.11384
1295,0.8631592,28.788734
1296,0.18432617,31.891579
1297,0.004989624,35.414608
1298,0.3254242,39.34901
1299,1.1450348,43.684963
1300,2.4617157,48.411625
1301,4.272217,53.517174
1302,6.571991,58.988834
1303,9.35437,64.81293
1304,12.61409,70.97499
1305,16.34224,77.45954
1306,20.52951,84.25036
1307,25.165405,91.33046
1308,30.23674,98.68214
1309,35.733917,106.287186
1310,41.641724,114.126434
1311,47.945404,122.1803
1312,54.62918,130.42862
1313,61.67415,138.85078
1314,69.067,147.42596
1315,76.78716,156.13252
1316,84.81532,164.94868
1317,93.131424,173.85239
1318,101.712006,182.8214
1319,110.54087,191.83356
1320,119.59336,200.86607
1321,128.84686,209.89638
1322,138.27823,218.90189
1323,147.86093,227.86008
1324,157.57687,236.74889
1325,167.39886,245.54578
1326,177.30237,254.22878
1327,187.26259,262.77615
1328,197.2516,271.16656
1329,207.25055,279.37933
1330,217.23135,287.39365
1331,227.16908,295.18945
1332,237.03891,302.74728
1333,246.81317,310.04822
1334,256.4734,317.07437
1335,265.9925,323.80783
1336,275.34656,330.23178
1337,284.51233,336.33014
1338,293.4641,342.08768
1339,302.18503,347.4903
1340,310.6505,352.52423
1341,318.83936,357.17685
1342,326.73117,361.43658
1343,334.3039,365.29276
1344,341.54327,368.73596
1345,348.42883,371.7574
1346,354.94333,374.34943
1347,361.0705,376.50568
1348,366.79333,378.2207
1349,372.10107,379.49045
1350,376.97855,380.3115
1351,381.41364,380.68185
1352,385.39523,380.60056
1353,388.91235,380.0678
1354,391.95844,379.08508
1355,394.5246,377.65472
1356,396.60455,375.7803
1357,398.193,373.4665
1358,399.28577,370.71912
1359,399.88074,367.54504
1360,399.97607,363.9522
1361,399.57153,359.94955
1362,398.66806,355.54712
1363,397.2685,350.75592
1364,395.37543,345.5879
1365,392.99402,340.05597
1366,390.1301,334.17398
1367,386.79092,327.95667
1368,382.98602,321.41956
1369,378.72266,314.57883
1370,374.01248,307.45175
1371,368.8673,300.05612
1372,363.30005,292.41046
1373,357.32642,284.53384
1374,350.95776,276.44577
1375,344.21173,268.1667
1376,337.1052,259.71722
1377,329.65594,251.11858
1378,321.88498,242.39221
1379,313.807,233.55968
1380,305.44458,224.64331
1381,296.81854,215.66539
1382,287.95044,206.64838
1383,278.86536,197.61482
1384,269.58032,188.58699
1385,260.12137,179.58772
1386,250.51215,170.63956
1387,240.77664,161.76483
1388,230.94223,152.98575
1389,221.02747,144.32393
1390,211.06015,135.80132
1391,201.06517,127.439224
1392,191.06754,119.25856
1393,181.09528,111.279785
1394,171.16722,103.522514
1395,161.31123,96.00644
1396,151.55197,88.75035
1397,141.91382,81.77239
1398,132.42374,75.09001
1399,123.099655,68.719604
1400,113.96781,62.67738
1401,105.051025,56.978443
1402,96.371605,51.637043
1403,87.95374,46.666534
1404,79.81337,42.079067
1405,71.97345,37.886368
1406,64.45355,34.098915
1407,57.272507,30.72618
1408,50.45027,27.776588
1409,43.999725,25.257292
1410,37.939148,23.174799
1411,32.283707,21.534317
1412,27.0475,20.339941
1413,22.245056,19.594658
1414,17.885406,19.300169
1415,13.981018,19.457367
1416,10.541641,20.065851
1417,7.5758514,21.124096
1418,5.0917816,22.629456
1419,3.0941162,24.578087
1420,1.5886536,26.965195
1421,0.57917786,29.784811
1422,0.06820679,33.02988
1423,0.05697632,36.69229
1424,0.54545593,40.762882
1425,1.5325317,45.231483
1426,3.015747,50.086926
1427,4.9913635,55.31706
1428,7.453644,60.908802
1429,10.397919,66.84827
1430,13.816162,73.12053
1431,17.69983,79.70991
1432,22.0392,86.59992
1433,26.821915,93.77334
1434,32.038925,101.21239
1435,37.675797,108.89832
1436,43.71846,116.81194
1437,50.15178,124.93344
1438,56.95755,133.24252
1439,64.122925,141.71863
1440,71.627975,150.34038
1441,79.45391,159.08621
1442,87.58119,167.93425
1443,95.98689,176.86237
1444,104.65512,185.84853
1445,113.56169,194.87001
1446,122.68434,203.90427
1447,132.00026,212.92871
1448,141.48325,221.92076
1449,151.11539,230.85826
1450,160.86972,239.71858
1451,170.7219,248.47957
1452,180.64723,257.11932
1453,190.6179,265.61624
1454,200.61507,273.9494
1455,210.6107,282.0977
1456,220.5798,290.0407
1457,230.49747,297.7586
1458,240.33589,305.2321
1459,250.0765,312.44278
1460,259.69196,319.37238
1461,269.15814,326.00354
1462,278.4515,332.3197
1463,287.546,338.30505
1464,296.42444,343.94495
1465,305.06183,349.225
1466,313.43658,354.13202
1467,321.52783,358.65375
1468,329.3129,362.77887
1469,336.77716,366.4973
1470,343.89948,369.7996
1471,350.6621,372.6774
1472,357.0481,375.12354
1473,363.03973,377.13193
1474,368.62573,378.69772
1475,373.79016,379.81683
1476,378.52017,380.48645
1477,382.80392,380.70493
1478,386.62958,380.4717
1479,389.99,379.7875
1480,392.87543,378.6539
1481,395.27872,377.07373
1482,397.19385,375.05096
1483,398.61572,372.59064
1484,399.54156,369.69897
1485,399.96863,366.38315
1486,399.89578,362.65143
1487,399.32324,358.51318
1488,398.25287,353.97876
1489,396.68665,349.05942
1490,394.62872,343.76752
1491,392.0843,338.1163
1492,389.0597,332.11987
1493,385.5636,325.7932
1494,381.60266,319.15207
1495,377.18774,312.2131
1496,372.32993,304.9937
1497,367.04132,297.5119
1498,361.3369,289.7864
1499,355.22754,281.83636
1500,348.7301,273.6818
1501,341.8609,265.3431
1502,334.6371,256.84116
1503,327.07904,248.19717
1504,319.2011,239.43253
1505,311.02518,230.56937
1506,302.5717,221.62984
1507,293.86182,212.6363
1508,284.92004,203.61125
1509,275.76334,194.57695
1510,266.4172,185.55624
1511,256.90506,176.5717
1512,247.25066,167.64578
1513,237.48114,158.8008
1514,227.61496,150.05855
1515,217.67975,141.44118
1516,207.70033,132.97023
1517,197.70168,124.666885
1518,187.71182,116.55191
1519,177.74962,108.64525
1520,167.84303,100.96699
1521,158.01685,93.53632
1522,148.29561,86.371826
1523,138.70651,79.49141
1524,129.2677,72.91196
1525,120.0057,66.65021
1526,110.94367,60.721825
1527,102.104256,55.14162
1528,93.51215,49.92355
1529,85.18357,45.08037
1530,77.14202,40.624462
1531,69.40758,36.566956
1532,61.999588,32.918
1533,54.93869,29.68671
1534,48.23819,26.880936
1535,41.917053,24.50791
1536,35.99109,22.57356
1537,30.475128,21.082724
1538,25.38443,20.039124
1539,20.728607,19.445202
1540,16.52092,19.302603
1541,12.771896,19.61168
1542,9.4908905,20.371656
1543,6.68692,21.580631
1544,4.3652344,23.235489
1545,2.5326233,25.332184
1546,1.1936188,27.86547
1547,0.35159302,30.82901
1548,0.008682251,34.21539
1549,0.16551208,38.016132
1550,0.82188416,42.221756
1551,1.976181,46.821743
1552,3.625473,51.80459
1553,5.7649384,57.15782
1554,8.390518,62.868145
1555,11.495087,68.92122
1556,15.070892,75.3019
1557,19.108963,81.99424
1558,23.597794,88.9815
1559,28.528885,96.24636
1560,33.88861,103.77052
1561,39.663605,111.53518
1562,45.839386,119.52091
1563,52.398483,127.70775
1564,59.32849,136.07545
1565,66.61014,144.6029
1566,74.22525,153.26877
1567,82.15476,162.05138
1568,90.376305,170.92879
1569,98.87435,179.87907
1570,107.6252,188.87961
1571,116.606964,197.90788
1572,125.79718,206.94133
1573,135.17001,215.95735
1574,144.70773,224.93373
1575,154.38368,233.84773
1576,164.17365,242.67708
1577,174.05318,251.39969
1578,183.99454,259.99374
1579,193.97891,268.4381
1580,203.97836,276.71136
1581,213.96785,284.79282
1582,223.92242,292.66226
1583,233.8142,300.30002
1584,243.62447,307.68735
1585,253.32568,314.80545
1586,262.8936,321.63654
1587,272.3043,328.1635
1588,281.53146,334.3701
1589,290.55765,340.24106
1590,299.35748,345.76144
1591,307.90894,350.91742
1592,316.1906,355.69614
1593,324.17947,360.08566
1594,331.8604,364.07526
1595,339.2117,367.6547
1596,346.215,370.81503
1597,352.85278,373.5484
1598,359.10663,375.84793
1599,364.96472,377.70807
1600,370.4104,379.12402
1601,375.4301,380.0922
1602,380.0113,380.61023
1603,384.1413,380.6768
1604,387.81232,380.29187
1605,391.01385,379.4563
1606,393.73785,378.17215
1607,395.9776,376.44266
1608,397.72696,374.27213
1609,398.98267,371.66605
1610,399.74097,368.6309
1611,399.99994,365.17422
1612,399.75894,361.3047
1613,399.01892,357.032
1614,397.78122,352.36682
1615,396.04913,347.32077
1616,393.82697,341.9065
1617,391.12024,336.13757
1618,387.93683,330.02838
1619,384.2827,323.59415
1620,380.1679,316.85095
1621,375.60275,309.81573
1622,370.59863,302.50607
1623,365.16974,294.94022
1624,359.3264,287.13696
1625,353.08475,279.1159
1626,346.46045,270.89716
1627,339.46997,262.50122
1628,332.1332,253.94913
1629,324.46393,245.26202
1630,316.48352,236.4618
1631,308.2119,227.57051
1632,299.6698,218.61035
1633,290.8813,209.60374
1634,281.8629,200.5729
1635,272.6399,191.54068
1636,263.2353,182.52966
1637,253.67264,173.56238
1638,243.97878,164.66124
1639,234.17203,155.84819
1640,224.27988,147.14554
1641,214.32703,138.57506
1642,204.33835,130.15817
1643,194.34189,121.91593
1644,184.35652,113.86861
1645,174.41025,106.03661
1646,164.52795,98.439545
1647,154.73433,91.09639
1648,145.0568,84.025505
1649,135.51364,77.244255
1650,126.131676,70.76988
1651,116.93437,64.618576
1652,107.94472,58.805714
1653,99.18781,53.345825
1654,90.68021,48.252274
1655,82.44587,43.53806
1656,74.50541,39.21497
1657,66.87865,35.293808
1658,59.586838,31.784382
1659,52.643753,28.695219
1660,46.06903,26.034271
1661,39.87909,23.808187
1662,34.089417,22.022532
1663,28.71608,20.681767
1664,23.769196,19.789064
1665,19.262848,19.346828
1666,15.208313,19.35616
1667,11.615723,19.81703
1668,8.494919,20.728289
1669,5.851822,22.087553
1670,3.6940308,23.891523
1671,2.0269928,26.135689
1672,0.8548279,28.814432
1673,0.18061829,31.921055
1674,0.005630493,35.44777
1675,0.33058167,39.385784
1676,1.1546631,43.725254
1677,2.4758148,48.45532
1678,4.2901154,53.56415
1679,6.594116,59.039043
1680,9.381607,64.86626
1681,12.645584,71.03122
1682,16.377914,77.51852
1683,20.567902,84.31191
1684,25.207657,91.39458
1685,30.284348,98.74868
1686,35.785294,106.355835
1687,41.696747,114.19701
1688,48.001923,122.252594
1689,54.68895,130.50267
1690,61.739197,138.92642
1691,69.135086,147.50279
1692,76.85809,156.21031
1693,84.886444,165.02724
1694,93.20495,173.93178
1695,101.79043,182.90143
1696,110.621414,191.91376
1697,119.67581,200.94626
1698,128.92816,209.97632
1699,138.36096,218.98167
1700,147.94786,227.93954
1701,157.66487,236.82751
1702,167.4877,245.62337
1703,177.38878,254.30511
1704,187.3494,262.85138
1705,197.34163,271.24048
1706,207.34052,279.45148
1707,217.32104,287.46384
1708,227.25526,295.25748
1709,237.12439,302.8133
1710,246.9007,310.1121
1711,256.55978,317.1356
1712,266.07745,323.86624
1713,275.42715,330.2872
1714,284.59116,336.38275
1715,293.5437,342.1374
1716,302.26242,347.53668
1717,310.7255,352.56717
1718,318.90933,357.21628
1719,326.79846,361.47263
1720,334.3706,365.32532
1721,341.60687,368.76474
1722,348.48914,371.7823
1723,354.9983,374.37042
1724,361.12207,376.5229
1725,366.84302,378.2341
1726,372.1469,379.4998
1727,377.02045,380.31677
1728,381.45026,380.683
1729,385.42786,380.59778
1730,388.94193,380.06113
1731,391.98367,379.07437
1732,394.54553,377.64
1733,396.62048,375.76163
1734,398.20465,373.444
1735,399.29333,370.69284
1736,399.88385,367.51505
1737,399.97467,363.91852
1738,399.5658,359.9123
1739,398.65802,355.50635
1740,397.25366,350.7117
1741,395.35617,345.54037
1742,392.97034,340.0053
1743,390.1031,334.12033
1744,386.75983,327.90002
1745,382.9497,321.36005
1746,378.68222,314.51675
1747,373.96808,307.38727
1748,368.8207,299.98938
1749,363.24982,292.34146
1750,357.2708,284.46277
1751,350.89868,276.373
1752,344.14932,268.09235
1753,337.04187,259.6416
1754,329.5897,251.0416
1755,321.8136,242.31404
1756,313.73297,233.48076
1757,305.36804,224.56386
1758,296.7424,215.58562
1759,287.8723,206.5682
1760,278.7826,197.53442
1761,269.4959,188.50685
1762,260.0355,179.50807
1763,250.42798,170.56058
1764,240.69148,161.68642
1765,230.85327,152.90808
1766,220.93793,144.24751
1767,210.97025,135.72636
1768,200.9782,127.36594
1769,190.98064,119.1868
1770,181.00565,111.2097
1771,171.07812,103.4546
1772,161.2229,95.94087
1773,151.46758,88.68732
1774,141.83058,81.71173
1775,132.33899,75.03186
1776,123.01655,68.6644
1777,113.886536,62.625275
1778,104.97448,56.92958
1779,96.29722,51.59126
1780,87.87918,46.62393
1781,79.74142,42.040016
1782,71.9043,37.850975
1783,64.38962,34.067276
1784,57.21158,30.698128
1785,50.390488,27.752188
1786,43.94339,25.236822
1787,37.886414,23.158316
1788,32.236343,21.521862
1789,27.00383,20.331364
1790,22.203796,19.58998
1791,17.84822,19.299557
1792,13.947983,19.460815
1793,10.513794,20.073353
1794,7.55217,21.135525
1795,5.0716095,22.644787
1796,3.078354,24.597364
1797,1.5773468,26.988367
1798,0.57258606,29.811815
1799,0.065963745,33.06062
1800,0.059143066,36.726692
1801,0.552124,40.800865
1802,1.5436707,45.272945
1803,3.0308075,50.131756
1804,5.010681,55.365196
1805,7.478012,60.960144
1806,10.42659,66.9026
1807,13.84906,73.17772
1808,17.735626,79.7698
1809,22.078903,86.66249
1810,26.866974,93.83844
1811,32.087814,101.27972
1812,37.728424,108.96771
1813,43.77275,116.883194
1814,50.209396,125.006584
1815,57.020493,133.31738
1816,64.18901,141.79482
1817,71.69702,150.4177
1818,79.52334,159.16443
1819,87.653145,168.01344
1820,96.063805,176.94237
1821,104.734276,185.92888
1822,113.6429,194.9505
1823,122.76457,203.98468
1824,132.08208,213.00914
1825,141.56937,222.00104
1826,151.2027,230.9379
1827,160.95804,239.79736
1828,170.80794,248.55728
1829,180.73381,257.1961
1830,190.70784,265.69193
1831,200.70511,274.0235
1832,210.7006,282.16998
1833,220.66632,290.11102
1834,230.58342,297.82712
1835,240.42407,305.29865
1836,250.16367,312.50693
1837,259.77786,319.434
1838,269.23978,326.06247
1839,278.5315,332.3761
1840,287.62692,338.35883
1841,296.5033,343.9957
1842,305.13843,349.27264
1843,313.50824,354.17645
1844,321.5969,358.69513
1845,329.38156,362.81714
1846,336.84283,366.53223
1847,343.962,369.83105
1848,350.7193,372.70538
1849,357.10196,375.1483
1850,363.0919,377.15344
1851,368.67413,378.71585
1852,373.83472,379.83163
1853,378.5594,380.49796
1854,382.83917,380.71338
1855,386.66193,380.4772
1856,390.01807,379.79
1857,392.89923,378.65356
1858,395.2975,377.07074
1859,397.20837,375.04553
1860,398.62625,372.583
1861,399.54764,369.68933
1862,399.97018,366.37173
1863,399.89294,362.63858
1864,399.3161,358.49924
1865,398.24097,353.96405
1866,396.6703,349.0444
1867,394.60797,343.75266
1868,392.06006,338.10208
1869,389.0313,332.10678
1870,385.53,325.78183
1871,381.56494,319.14316
1872,377.146,312.20743
1873,372.28577,304.99203
1874,366.99344,297.51495
1875,361.2837,289.79514
1876,355.17075,281.852
1877,348.66992,273.70544
1878,341.7996,265.37607
1879,334.57275,256.88458
1880,327.00952,248.2526
1881,319.12878,239.50182
1882,310.95026,230.65439
1883,302.497,221.73262
1884,293.785,212.7588
1885,284.83853,203.7559
1886,275.68,194.74672
1887,266.33228,185.75415
1888,256.82166,176.80103
1889,247.16612,167.90985
1890,237.39268,159.1036
1891,227.52577,150.40482
1892,217.59006,141.83583
1893,207.61342,133.4187
1894,197.6147,125.17485
1895,187.62195,117.12598
1896,177.66014,109.29309
1897,167.75418,101.696754
1898,157.93181,94.35704
1899,148.21158,87.293175
1900,138.62082,80.52447
1901,129.18349,74.06932
1902,119.92319,67.945526
1903,110.86579,62.170235
1904,102.02842,56.75962
1905,93.43594,51.729755
1906,85.10986,47.095737
1907,77.070984,42.87195
1908,69.341705,39.072056
1909,61.936646,35.708763
1910,54.87671,32.79455
1911,48.17955,30.340979
1912,41.861908,28.358915
1913,35.94133,26.858583
1914,30.429,25.84939
1915,25.340546,25.340546
