no,raw,smooth
0,54.0,53.989475
1,59.0,53.988304
2,56.0,53.43145
3,53.0,53.146057
4,54.0,53.16229
5,49.0,53.06921
6,52.0,53.521343
7,53.0,53.69038
8,54.0,53.76709
9,53.0,53.74121
10,54.0,53.82357
11,53.0,53.803967
12,54.0,53.8933
13,54.0,53.881443
14,53.0,53.86827
15,54.0,53.96475
16,53.0,53.96083
17,55.0,54.067593
18,54.0,53.963993
19,54.0,53.95999
20,54.0,53.955547
21,53.0,53.950607
22,54.0,54.056232
23,59.0,54.06248
24,54.0,53.513866
25,49.0,53.45985
26,54.0,53.955387
27,54.0,53.95043
28,54.0,53.944923
29,54.0,53.938805
30,54.0,53.932007
31,55.0,53.924454
32,54.0,53.80495
33,54.0,53.78328
34,55.0,53.7592
35,50.0,53.621334
36,54.0,54.023705
37,53.0,54.026337
38,53.0,54.140377
39,54.0,54.26709
40,55.0,54.29677
41,53.0,54.21863
42,55.0,54.35404
43,54.0,54.282265
44,54.0,54.31363
45,54.0,54.348476
46,56.0,54.387196
47,58.0,54.207996
48,53.0,53.786663
49,52.0,53.874073
50,58.0,54.082302
51,49.0,53.647003
52,54.0,54.163338
53,59.0,54.181484
54,53.0,53.646095
55,52.0,53.717884
56,52.0,53.90876
57,55.0,54.120846
58,54.0,54.023163
59,54.0,54.025738
60,54.0,54.0286
61,54.0,54.031776
62,54.0,54.035305
63,54.0,54.039227
64,54.0,54.043587
65,54.0,54.04843
66,59.0,54.053814
67,52.0,53.50424
68,53.0,53.671375
69,54.0,53.745975
70,53.0,53.71775
71,53.0,53.797504
72,53.0,53.88612
73,54.0,53.98458
74,54.0,53.98287
75,54.0,53.980965
76,54.0,53.97885
77,54.0,53.9765
78,54.0,53.973892
79,54.0,53.97099
80,54.0,53.967766
81,53.0,53.964184
82,59.0,54.071316
83,52.0,53.523685
84,54.0,53.692986
85,53.0,53.65887
86,52.0,53.732082
87,54.0,53.924538
88,54.0,53.916153
89,54.0,53.906837
90,54.0,53.896484
91,55.0,53.884983
92,58.0,53.761093
93,53.0,53.290108
94,52.0,53.322346
95,50.0,53.469273
96,54.0,53.854748
97,54.0,53.838608
98,58.0,53.820675
99,51.0,53.356308
100,50.0,53.618122
101,54.0,54.020138
102,54.0,54.022373
103,54.0,54.02486
104,54.0,54.027622
105,54.0,54.03069
106,54.0,54.0341
107,54.0,54.037888
108,54.0,54.042095
109,54.0,54.046772
110,54.0,54.051968
111,55.0,54.057743
112,54.0,53.95305
113,55.0,53.94783
114,59.0,53.830925
115,52.0,53.256584
116,48.0,53.396206
117,55.0,53.995785
118,54.0,53.884205
119,54.0,53.871338
120,54.0,53.85704
121,54.0,53.841156
122,54.0,53.823505
123,54.0,53.803894
124,54.0,53.782104
125,54.0,53.757893
126,54.0,53.73099
127,54.0,53.7011
128,53.0,53.66789
129,54.0,53.7421
130,58.0,53.713444
131,50.0,53.237164
132,53.0,53.59685
133,53.0,53.66317
134,53.0,53.73686
135,55.0,53.818733
136,58.0,53.687485
137,55.0,53.208317
138,53.0,53.009243
139,48.0,53.010273
140,52.0,53.56697
141,54.0,53.74108
142,54.0,53.71231
143,56.0,53.680344
144,55.0,53.422607
145,53.0,53.247345
146,54.0,53.27483
147,49.0,53.194256
148,53.0,53.660286
149,52.0,53.733654
150,54.0,53.92628
151,54.0,53.91809
152,54.0,53.90899
153,54.0,53.898876
154,54.0,53.88764
155,53.0,53.875156
156,55.0,53.972397
157,54.0,53.85822
158,54.0,53.842464
159,54.0,53.82496
160,54.0,53.805508
161,54.0,53.783897
162,55.0,53.759888
163,50.0,53.6221
164,59.0,54.02456
165,49.0,53.471733
166,54.0,53.968594
167,54.0,53.965103
168,54.0,53.961224
169,54.0,53.956913
170,54.0,53.952126
171,54.0,53.946808
172,54.0,53.9409
173,55.0,53.934334
174,59.0,53.81593
175,53.0,53.23992
176,49.0,53.266582
177,54.0,53.740646
178,55.0,53.71183
179,50.0,53.568703
180,59.0,53.965225
181,55.0,53.405804
182,53.0,53.228672
183,53.0,53.25408
184,48.0,53.282314
185,54.0,53.86924
186,54.0,53.85471
187,54.0,53.838566
188,54.0,53.82063
189,54.0,53.800697
190,54.0,53.778553
191,54.0,53.75395
192,54.0,53.72661
193,54.0,53.69623
194,53.0,53.66248
195,52.0,53.73609
196,55.0,53.92899
197,54.0,53.80999
198,54.0,53.788876
199,54.0,53.76542
200,54.0,53.739353
201,54.0,53.710392
202,54.0,53.678215
203,54.0,53.64246
204,57.0,53.602734
205,53.0,53.22526
206,50.0,53.250294
207,53.0,53.61144
208,54.0,53.67938
209,54.0,53.643753
210,55.0,53.604168
211,52.0,53.449078
212,54.0,53.61009
213,55.0,53.566765
214,50.0,53.407516
215,54.0,53.786133
216,54.0,53.76237
217,53.0,53.73597
218,54.0,53.817745
219,54.0,53.797493
220,53.0,53.774994
221,54.0,53.861107
222,54.0,53.845673
223,54.0,53.828526
224,54.0,53.80947
225,57.0,53.7883
226,56.0,53.431446
227,52.0,53.146053
228,52.0,53.27339
229,53.0,53.41488
230,49.0,53.46098
231,54.0,53.956642
232,54.0,53.951824
233,55.0,53.946472
234,58.0,53.829414
235,53.0,53.366016
236,49.0,53.40669
237,54.0,53.89632
238,54.0,53.8848
239,54.0,53.871998
240,53.0,53.857777
241,54.0,53.953087
242,53.0,53.947876
243,54.0,54.053196
244,54.0,54.059105
245,57.0,54.065674
246,52.0,53.73964
247,54.0,53.932934
248,54.0,53.925484
249,54.0,53.917202
250,54.0,53.908
251,54.0,53.897778
252,54.0,53.886417
253,54.0,53.8738
254,53.0,53.859776
255,54.0,53.955307
256,54.0,53.95034
257,54.0,53.94482
258,53.0,53.93869
259,55.0,54.04299
260,54.0,53.93666
261,55.0,53.929623
262,53.0,53.81069
263,54.0,53.900772
264,57.0,53.889748
265,53.0,53.544167
266,49.0,53.604633
267,54.0,54.11626
268,54.0,54.129177
269,54.0,54.143528
270,57.0,54.159473
271,58.0,53.84386
272,54.0,53.38207
273,50.0,53.313408
274,52.0,53.681564
275,54.0,53.868404
276,54.0,53.853783
277,54.0,53.837536
278,57.0,53.819485
279,49.0,53.466095
280,54.0,53.962326
281,54.0,53.95814
282,54.0,53.95349
283,54.0,53.948322
284,54.0,53.94258
285,54.0,53.9362
286,54.0,53.92911
287,53.0,53.921234
288,54.0,54.023598
289,56.0,54.02622
290,53.0,53.80691
291,54.0,53.896572
292,54.0,53.88508
293,54.0,53.87231
294,59.0,53.858124
295,50.0,53.286804
296,49.0,53.652004
297,54.0,54.16889
298,54.0,54.187656
299,54.0,54.208508
300,54.0,54.231674
301,54.0,54.257416
302,54.0,54.28602
303,55.0,54.3178
304,54.0,54.242
305,57.0,54.26889
306,53.0,53.965435
307,54.0,54.07271
308,54.0,54.080788
309,54.0,54.089764
310,55.0,54.09974
311,53.0,53.99971
312,55.0,54.11079
313,54.0,54.01199
314,54.0,54.01332
315,58.0,54.0148
316,55.0,53.572002
317,53.0,53.413338
318,49.0,53.459267
319,52.0,53.954742
320,54.0,54.171936
321,58.0,54.19104
322,53.0,53.767826
323,54.0,53.85314
324,58.0,53.836823
325,53.0,53.37425
326,49.0,53.415833
327,53.0,53.90648
328,54.0,54.007202
329,54.0,54.008003
330,54.0,54.008892
331,53.0,54.00988
332,55.0,54.122093
333,54.0,54.02455
334,54.0,54.02728
335,54.0,54.03031
336,53.0,54.03368
337,58.0,54.148537
338,52.0,53.7206
339,54.0,53.911777
340,54.0,53.901974
341,54.0,53.891083
342,54.0,53.87898
343,58.0,53.865532
344,49.0,53.406147
345,54.0,53.895718
346,53.0,53.884132
347,54.0,53.982372
348,54.0,53.98041
349,54.0,53.978233
350,54.0,53.975815
351,54.0,53.973125
352,54.0,53.97014
353,58.0,53.96682
354,53.0,53.518692
355,53.0,53.57633
356,48.0,53.640366
357,55.0,54.267075
358,54.0,54.18564
359,60.0,54.206264
360,55.0,53.56252
361,54.0,53.4028
362,52.0,53.336445
363,49.0,53.48494
364,54.0,53.983265
365,54.0,53.981403
366,54.0,53.979336
367,55.0,53.97704
368,54.0,53.86338
369,58.0,53.8482
370,49.0,53.386894
371,54.0,53.874325
372,54.0,53.86036
373,54.0,53.844845
374,53.0,53.827606
375,55.0,53.919563
376,53.0,53.799515
377,54.0,53.88835
378,54.0,53.875946
379,54.0,53.862164
380,54.0,53.846848
381,55.0,53.82983
382,54.0,53.699814
383,54.0,53.66646
384,58.0,53.6294
385,55.0,53.14378
386,45.0,52.937534
387,54.0,53.819485
388,54.0,53.799427
389,54.0,53.77714
390,55.0,53.75238
391,54.0,53.613758
392,55.0,53.570843
393,49.0,53.41205
394,54.0,53.902275
395,54.0,53.89142
396,54.0,53.879353
397,54.0,53.865948
398,54.0,53.85105
399,54.0,53.834503
400,54.0,53.816113
401,57.0,53.79568
402,49.0,53.439648
403,55.0,53.93294
404,55.0,53.81438
405,59.0,53.682648
406,53.0,53.09183
407,53.0,53.102036
408,54.0,53.113377
409,48.0,53.014862
410,53.0,53.57207
411,53.0,53.635635
412,53.0,53.706264
413,54.0,53.78474
414,59.0,53.760822
415,53.0,53.17869
416,49.0,53.198547
417,55.0,53.66505
418,49.0,53.516724
419,54.0,54.01858
420,54.0,54.020645
421,55.0,54.022938
422,54.0,53.914375
423,54.0,53.90486
424,55.0,53.89429
425,53.0,53.771435
426,54.0,53.85715
427,54.0,53.841278
428,53.0,53.823643
429,55.0,53.91516
430,54.0,53.794624
431,54.0,53.771805
432,54.0,53.74645
433,55.0,53.718277
434,50.0,53.575863
435,54.0,53.973183
436,54.0,53.970203
437,54.0,53.966892
438,54.0,53.963215
439,54.0,53.95913
440,55.0,53.95459
441,53.0,53.838436
442,54.0,53.9316
443,54.0,53.924
444,59.0,53.915554
445,54.0,53.350616
446,49.0,53.27846
447,54.0,53.753845
448,54.0,53.726494
449,57.0,53.696102
450,53.0,53.329002
451,54.0,53.36556
452,52.0,53.295063
453,50.0,53.43896
454,54.0,53.821068
455,54.0,53.801186
456,54.0,53.779095
457,57.0,53.75455
458,49.0,53.393948
459,53.0,53.882164
460,54.0,53.980183
461,54.0,53.97798
462,54.0,53.975536
463,54.0,53.972816
464,54.0,53.969795
465,55.0,53.96644
466,52.0,53.8516
467,54.0,54.057335
468,54.0,54.063705
469,55.0,54.070786
470,54.0,53.96754
471,54.0,53.963932
472,53.0,53.959923
473,58.0,54.06658
474,54.0,53.629536
475,53.0,53.58837
476,50.0,53.653748
477,54.0,54.059723
478,54.0,54.066357
479,54.0,54.07373
480,55.0,54.081924
481,55.0,53.979916
482,52.0,53.866573
483,54.0,54.07397
484,55.0,54.082188
485,54.0,53.98021
486,54.0,53.97801
487,54.0,53.975563
488,54.0,53.972847
489,54.0,53.96983
490,54.0,53.966476
491,54.0,53.96275
492,55.0,53.95861
493,54.0,53.842903
494,58.0,53.825447
495,53.0,53.36161
496,53.0,53.40179
497,49.0,53.446438
498,54.0,53.940487
499,54.0,53.933872
500,54.0,53.926525
501,54.0,53.91836
502,55.0,53.90929
503,55.0,53.7881
504,56.0,53.653446
505,53.0,53.392723
506,54.0,53.43636
507,48.0,53.373734
508,54.0,53.970818
509,54.0,53.967575
510,54.0,53.96397
511,54.0,53.959965
512,54.0,53.955517
513,53.0,53.950573
514,55.0,54.056194
515,54.0,53.95133
516,53.0,53.94592
517,54.0,54.05102
518,55.0,54.05669
519,54.0,53.951878
520,54.0,53.94653
521,54.0,53.94059
522,57.0,53.933987
523,49.0,53.59332
524,54.0,54.103687
525,55.0,54.115208
526,55.0,54.0169
527,54.0,53.907665
528,55.0,53.897408
529,53.0,53.7749
530,53.0,53.861
531,54.0,53.95667
532,55.0,53.951855
533,54.0,53.835396
534,55.0,53.817104
535,55.0,53.685673
536,53.0,53.53964
537,52.0,53.5996
538,56.0,53.777336
539,55.0,53.530376
540,53.0,53.36709
541,53.0,53.40788
542,49.0,53.4532
543,54.0,53.948
544,55.0,53.942223
545,53.0,53.82469
546,54.0,53.91633
547,53.0,53.907032
548,54.0,54.007816
549,53.0,54.008686
550,54.0,54.120766
551,54.0,54.134182
552,54.0,54.14909
553,54.0,54.165657
554,55.0,54.184063
555,53.0,54.093403
556,55.0,54.214893
557,55.0,54.12766
558,55.0,54.030735
559,54.0,53.92304
560,55.0,53.914486
561,53.0,53.793873
562,55.0,53.882084
563,54.0,53.757874
564,55.0,53.730972
565,55.0,53.58997
566,53.0,53.4333
567,49.0,53.481445
568,54.0,53.97938
569,54.0,53.97709
570,54.0,53.974545
571,57.0,53.971718
572,50.0,53.635242
573,54.0,54.039158
574,54.0,54.043507
575,54.0,54.04834
576,56.0,54.05371
577,53.0,53.83746
578,53.0,53.93051
579,54.0,54.033905
580,54.0,54.03767
581,54.0,54.041855
582,55.0,54.046505
583,57.0,53.940563
584,55.0,53.600628
585,53.0,53.445145
586,51.0,53.494606
587,56.0,53.77179
588,49.0,53.52421
589,54.0,54.0269
590,54.0,54.029892
591,54.0,54.033215
592,56.0,54.036903
593,53.0,53.818783
594,55.0,53.90976
595,58.0,53.788624
596,53.0,53.320694
597,50.0,53.356327
598,54.0,53.72925
599,54.0,53.69917
600,54.0,53.665745
601,53.0,53.628605
602,54.0,53.698452
603,55.0,53.664948
604,53.0,53.51661
605,53.0,53.574013
606,54.0,53.637794
607,53.0,53.59755
608,57.0,53.663944
609,49.0,53.293274
610,54.0,53.770306
611,54.0,53.744785
612,53.0,53.716427
613,54.0,53.796032
614,55.0,53.77337
615,54.0,53.637077
616,54.0,53.596752
617,54.0,53.55195
618,54.0,53.502167
619,54.0,53.446854
620,55.0,53.38539
621,50.0,53.205994
622,54.0,53.562218
623,54.0,53.513577
624,55.0,53.45953
625,54.0,53.28837
626,53.0,53.209297
627,49.0,53.232555
628,56.0,53.70284
629,55.0,53.4476
630,53.0,53.275116
631,52.0,53.305687
632,49.0,53.450764
633,54.0,53.945293
634,54.0,53.939217
635,55.0,53.93246
636,57.0,53.813847
637,49.0,53.45983
638,54.0,53.955368
639,54.0,53.95041
640,59.0,53.9449
641,49.0,53.38322
642,54.0,53.870243
643,54.0,53.855824
644,54.0,53.839806
645,53.0,53.822006
646,54.0,53.91334
647,53.0,53.903713
648,55.0,54.004128
649,54.0,53.893475
650,53.0,53.881638
651,54.0,53.9796
652,56.0,53.977333
653,53.0,53.752594
654,55.0,53.836216
655,58.0,53.70691
656,55.0,53.2299
657,45.0,53.033222
658,54.0,53.925804
659,54.0,53.91756
660,54.0,53.9084
661,54.0,53.898224
662,54.0,53.886917
663,54.0,53.87435
664,54.0,53.86039
665,53.0,53.844875
666,54.0,53.93875
667,54.0,53.931946
668,55.0,53.924385
669,54.0,53.804874
670,54.0,53.783195
671,54.0,53.759106
672,58.0,53.732338
673,53.0,53.258156
674,55.0,53.286842
675,53.0,53.096493
676,50.0,53.107216
677,52.0,53.452465
678,54.0,53.61385
679,54.0,53.570946
680,54.0,53.523273
681,53.0,53.470303
682,54.0,53.52256
683,54.0,53.469513
684,54.0,53.41057
685,55.0,53.345078
686,50.0,53.161198
687,50.0,53.512444
688,57.0,53.902718
689,49.0,53.558575
690,54.0,54.065083
691,55.0,54.072315
692,54.0,53.969242
693,54.0,53.965824
694,54.0,53.96203
695,54.0,53.95781
696,54.0,53.95312
697,54.0,53.94791
698,55.0,53.942123
699,54.0,53.82458
700,54.0,53.805088
701,58.0,53.783432
702,50.0,53.314926
703,54.0,53.683254
704,55.0,53.64806
705,49.0,53.497845
706,55.0,53.997604
707,55.0,53.886227
708,53.0,53.762474
709,54.0,53.847195
710,53.0,53.830215
711,54.0,53.922462
712,54.0,53.913845
713,54.0,53.904274
714,55.0,53.89364
715,58.0,53.77071
716,54.0,53.300793
717,51.0,53.223103
718,55.0,53.470116
719,53.0,53.30013
720,55.0,53.33348
721,48.0,53.14831
722,53.0,53.72035
723,54.0,53.80039
724,54.0,53.77821
725,54.0,53.753567
726,54.0,53.726185
727,54.0,53.69576
728,54.0,53.661953
729,54.0,53.624393
730,54.0,53.58266
731,54.0,53.53629
732,54.0,53.484764
733,54.0,53.427517
734,53.0,53.363907
735,52.0,53.404343
736,55.0,53.560383
737,50.0,53.40043
738,54.0,53.778255
739,54.0,53.753616
740,54.0,53.72624
741,54.0,53.69582
742,54.0,53.66202
743,54.0,53.62447
744,54.0,53.582745
745,58.0,53.536385
746,53.0,53.04043
747,49.0,53.04492
748,55.0,53.494358
749,54.0,53.327065
750,55.0,53.252293
751,49.0,53.058105
752,53.0,53.509007
753,50.0,53.565563
754,54.0,53.96174
755,53.0,53.957485
756,54.0,54.063873
757,54.0,54.07097
758,54.0,54.078854
759,54.0,54.087616
760,54.0,54.09735
761,54.0,54.108166
762,56.0,54.120182
763,58.0,53.911316
764,53.0,53.45702
765,53.0,53.5078
766,52.0,53.564224
767,52.0,53.738026
768,53.0,53.93114
769,54.0,54.034603
770,54.0,54.03845
771,54.0,54.04272
772,55.0,54.047466
773,54.0,53.94163
774,54.0,53.935146
775,58.0,53.92794
776,53.0,53.47549
777,49.0,53.528324
778,55.0,54.03147
779,54.0,53.92386
780,54.0,53.915398
781,54.0,53.906
782,54.0,53.895554
783,53.0,53.88395
784,54.0,53.982166
785,54.0,53.980186
786,55.0,53.977985
787,54.0,53.86443
788,54.0,53.849365
789,54.0,53.832626
790,54.0,53.81403
791,54.0,53.793365
792,54.0,53.770405
793,53.0,53.744896
794,54.0,53.827663
795,54.0,53.808514
796,53.0,53.787235
797,54.0,53.87471
798,55.0,53.86079
799,55.0,53.73421
800,50.0,53.59357
801,55.0,53.99286
802,54.0,53.880955
803,54.0,53.867725
804,55.0,53.853027
805,59.0,53.725586
806,53.0,53.13954
807,54.0,53.15505
808,55.0,53.061165
809,53.0,52.84574
810,48.0,52.8286
811,50.0,53.365116
812,53.0,53.739017
813,54.0,53.821133
814,53.0,53.801258
815,58.0,53.89029
816,49.0,53.43366
817,54.0,53.92629
818,54.0,53.9181
819,54.0,53.908997
820,54.0,53.898884
821,54.0,53.88765
822,54.0,53.875164
823,54.0,53.861294
824,54.0,53.845882
825,53.0,53.82876
826,54.0,53.920845
827,53.0,53.91205
828,53.0,54.01339
829,54.0,54.12599
830,54.0,54.13999
831,60.0,54.155544
832,51.0,53.50616
833,53.0,53.784626
834,54.0,53.87181
835,58.0,53.857567
836,53.0,53.3973
837,49.0,53.44145
838,54.0,53.934944
839,54.0,53.927715
840,54.0,53.91968
841,54.0,53.91076
842,54.0,53.900845
843,55.0,53.889828
844,53.0,53.766476
845,54.0,53.851643
846,54.0,53.83516
847,55.0,53.816845
848,52.0,53.685387
849,52.0,53.872654
850,54.0,54.080727
851,54.0,54.089695
852,59.0,54.099663
853,55.0,53.55518
854,53.0,53.394646
855,49.0,53.4385
856,52.0,53.931667
857,54.0,54.146297
858,54.0,54.16255
859,54.0,54.180614
860,55.0,54.200684
861,54.0,54.111874
862,54.0,54.124306
863,59.0,54.13812
864,53.0,53.597908
865,56.0,53.664345
866,53.0,53.40483
867,49.0,53.449814
868,53.0,53.944237
869,54.0,54.049152
870,54.0,54.054615
871,54.0,54.060684
872,54.0,54.067425
873,54.0,54.074917
874,55.0,54.08324
875,54.0,53.98138
876,53.0,53.979313
877,55.0,54.088127
878,54.0,53.98681
879,58.0,53.985344
880,55.0,53.539272
881,49.0,53.376972
882,54.0,53.8633
883,54.0,53.84811
884,53.0,53.831234
885,54.0,53.923595
886,55.0,53.915104
887,54.0,53.794563
888,54.0,53.771736
889,53.0,53.746372
890,54.0,53.829304
891,54.0,53.810337
892,55.0,53.789265
893,54.0,53.65474
894,55.0,53.61638
895,61.0,53.462643
896,51.0,52.62516
897,50.0,52.805737
898,52.0,53.117485
899,52.0,53.24165
900,49.0,53.379612
901,54.0,53.866234
902,54.0,53.85137
903,54.0,53.834858
904,54.0,53.81651
905,54.0,53.79612
906,53.0,53.773468
907,54.0,53.85941
908,54.0,53.84379
909,54.0,53.82643
910,54.0,53.807144
911,58.0,53.785717
912,48.0,53.317467
913,53.0,53.9083
914,54.0,54.009224
915,54.0,54.01025
916,54.0,54.011387
917,54.0,54.012653
918,54.0,54.01406
919,54.0,54.01562
920,54.0,54.017357
921,54.0,54.019287
922,53.0,54.02143
923,54.0,54.134926
924,54.0,54.149918
925,59.0,54.166576
926,54.0,53.629528
927,55.0,53.588364
928,48.0,53.43152
929,58.0,54.035023
930,49.0,53.59447
931,54.0,54.10497
932,54.0,54.11663
933,54.0,54.12959
934,54.0,54.14399
935,53.0,54.15999
936,55.0,54.28888
937,54.0,54.209866
938,54.0,54.233185
939,54.0,54.259094
940,54.0,54.287884
941,57.0,54.31987
942,58.0,54.02208
943,55.0,53.58009
944,48.0,53.42232
945,56.0,54.024803
946,52.0,53.80534
947,54.0,54.005936
948,54.0,54.006596
949,54.0,54.007328
950,55.0,54.00814
951,54.0,53.897934
952,54.0,53.886593
953,54.0,53.873993
954,54.0,53.859993
955,56.0,53.844437
956,55.0,53.604935
957,53.0,53.44993
958,52.0,53.499924
959,58.0,53.666584
960,49.0,53.185097
961,54.0,53.65011
962,53.0,53.611233
963,54.0,53.67915
964,54.0,53.6435
965,53.0,53.60389
966,53.0,53.67099
967,54.0,53.74555
968,54.0,53.717274
969,55.0,53.68586
970,53.0,53.539845
971,54.0,53.59983
972,53.0,53.555367
973,54.0,53.617077
974,54.0,53.57453
975,55.0,53.527256
976,52.0,53.36362
977,54.0,53.515137
978,54.0,53.46126
979,50.0,53.4014
980,54.0,53.779335
981,54.0,53.754818
982,54.0,53.727573
983,54.0,53.697304
984,54.0,53.66367
985,57.0,53.6263
986,55.0,53.251446
987,55.0,53.057163
988,51.0,52.841293
989,51.0,53.045883
990,50.0,53.27321
991,55.0,53.6369
992,50.0,53.485447
993,54.0,53.87272
994,58.0,53.858578
995,49.0,53.398422
996,54.0,53.887135
997,54.0,53.87459
998,54.0,53.860657
999,53.0,53.845173
1000,53.0,53.939083
1001,53.0,54.043427
1002,55.0,54.159367
1003,54.0,54.065964
1004,54.0,54.07329
1005,55.0,54.081436
1006,54.0,53.979374
1007,55.0,53.97708
1008,52.0,53.863426
1009,53.0,54.070473
1010,56.0,54.189415
1011,53.0,53.988243
1012,54.0,54.09805
1013,55.0,54.108944
1014,55.0,54.00994
1015,55.0,53.899937
1016,55.0,53.77771
1017,53.0,53.641903
1018,52.0,53.713226
1019,55.0,53.903587
1020,53.0,53.781765
1021,54.0,53.86863
1022,54.0,53.854034
1023,53.0,53.837814
1024,54.0,53.93091
1025,54.0,53.923233
1026,54.0,53.914703
1027,54.0,53.905228
1028,54.0,53.894695
1029,54.0,53.882996
1030,55.0,53.869995
1031,58.0,53.744442
1032,53.0,53.271603
1033,53.0,53.301785
1034,49.0,53.33532
1035,54.0,53.81702
1036,55.0,53.796688
1037,54.0,53.662987
1038,54.0,53.62554
1039,53.0,53.583935
1040,54.0,53.64882
1041,54.0,53.6098
1042,53.0,53.566444
1043,58.0,53.629383
1044,48.0,53.14376
1045,55.0,53.71529
1046,55.0,53.572544
1047,53.0,53.41394
1048,50.0,53.459938
1049,53.0,53.844376
1050,54.0,53.938198
1051,54.0,53.93133
1052,55.0,53.923702
1053,54.0,53.804115
1054,54.0,53.78235
1055,53.0,53.758163
1056,54.0,53.842407
1057,54.0,53.824898
1058,54.0,53.805443
1059,58.0,53.783825
1060,49.0,53.315365
1061,54.0,53.79485
1062,54.0,53.772053
1063,53.0,53.746727
1064,55.0,53.8297
1065,54.0,53.69967
1066,54.0,53.666298
1067,54.0,53.62922
1068,54.0,53.58802
1069,54.0,53.542244
1070,55.0,53.491383
1071,54.0,53.32376
1072,54.0,53.248623
1073,54.0,53.16514
1074,54.0,53.072376
1075,56.0,52.969307
1076,51.0,52.63257
1077,51.0,52.81397
1078,49.0,53.015526
1079,49.0,53.461697
1080,54.0,53.95744
1081,54.0,53.95271
1082,54.0,53.947456
1083,54.0,53.94162
1084,54.0,53.935135
1085,54.0,53.92793
1086,56.0,53.91992
1087,53.0,53.688805
1088,54.0,53.76534
1089,54.0,53.739265
1090,54.0,53.710297
1091,55.0,53.67811
1092,54.0,53.53123
1093,52.0,53.479145
1094,54.0,53.643494
1095,53.0,53.60388
1096,53.0,53.670982
1097,54.0,53.745537
1098,53.0,53.717262
1099,53.0,53.79696
1100,54.0,53.885513
1101,53.0,53.87279
1102,55.0,53.969772
1103,53.0,53.855305
1104,54.0,53.95034
1105,55.0,53.94482
1106,58.0,53.82758
1107,53.0,53.36398
1108,53.0,53.404423
1109,49.0,53.44936
1110,54.0,53.943733
1111,53.0,53.93748
1112,54.0,54.04165
1113,54.0,54.046276
1114,54.0,54.05142
1115,54.0,54.057133
1116,54.0,54.06348
1117,54.0,54.070534
1118,58.0,54.07837
1119,50.0,53.642635
1120,56.0,54.047375
1121,57.0,53.83042
1122,54.0,53.47825
1123,52.0,53.420277
1124,50.0,53.578087
1125,53.0,53.975655
1126,54.0,54.084064
1127,53.0,54.093403
1128,55.0,54.214893
1129,54.0,54.127663
1130,54.0,54.141846
1131,54.0,54.157604
1132,55.0,54.175114
1133,54.0,54.08346
1134,59.0,54.092735
1135,52.0,53.54748
1136,57.0,53.719425
1137,53.0,53.35492
1138,50.0,53.394356
1139,54.0,53.771507
1140,54.0,53.74612
1141,53.0,53.71791
1142,53.0,53.79768
1143,54.0,53.886314
1144,53.0,53.873684
1145,54.0,53.97076
1146,54.0,53.96751
1147,54.0,53.9639
1148,54.0,53.959892
1149,54.0,53.955437
1150,58.0,53.950485
1151,50.0,53.50054
1152,54.0,53.889492
1153,54.0,53.877213
1154,54.0,53.86357
1155,54.0,53.84841
1156,54.0,53.83157
1157,58.0,53.812855
1158,49.0,53.34762
1159,55.0,53.83069
1160,54.0,53.700768
1161,53.0,53.66752
1162,54.0,53.74169
1163,54.0,53.71299
1164,54.0,53.6811
1165,58.0,53.645664
1166,55.0,53.16185
1167,50.0,52.95761
1168,46.0,53.286236
1169,54.0,54.09582
1170,55.0,54.10647
1171,55.0,54.007187
1172,54.0,53.896877
1173,58.0,53.885418
1174,49.0,53.428246
1175,54.0,53.920273
1176,54.0,53.911415
1177,54.0,53.901573
1178,54.0,53.890636
1179,54.0,53.878487
1180,54.0,53.864986
1181,54.0,53.849983
1182,58.0,53.833313
1183,49.0,53.37035
1184,54.0,53.855946
1185,54.0,53.83994
1186,54.0,53.822155
1187,54.0,53.802395
1188,54.0,53.780437
1189,54.0,53.756042
1190,53.0,53.728935
1191,54.0,53.80993
1192,54.0,53.78881
1193,54.0,53.765347
1194,54.0,53.739273
1195,54.0,53.710304
1196,57.0,53.678116
1197,53.0,53.309017
1198,53.0,53.343353
1199,49.0,53.381508
1200,54.0,53.868343
1201,54.0,53.853714
1202,54.0,53.83746
1203,54.0,53.8194
1204,54.0,53.799335
1205,54.0,53.77704
1206,54.0,53.752266
1207,52.0,53.72474
1208,54.0,53.916378
1209,55.0,53.907085
1210,58.0,53.785652
1211,55.0,53.317394
1212,53.0,53.13044
1213,49.0,53.144936
1214,56.0,53.605484
1215,49.0,53.33943
1216,54.0,53.82159
1217,53.0,53.801765
1218,54.0,53.890854
1219,54.0,53.878727
1220,54.0,53.865253
1221,54.0,53.85028
1222,58.0,53.833645
1223,48.0,53.37072
1224,54.0,53.96747
1225,54.0,53.963852
1226,59.0,53.959835
1227,53.0,53.39982
1228,49.0,53.444244
1229,54.0,53.93805
1230,58.0,53.931168
1231,50.0,53.479076
1232,53.0,53.865643
1233,54.0,53.961826
1234,54.0,53.957584
1235,54.0,53.95287
1236,54.0,53.94763
1237,54.0,53.941814
1238,55.0,53.93535
1239,52.0,53.817055
1240,55.0,54.01895
1241,54.0,53.909946
1242,54.0,53.89994
1243,54.0,53.888824
1244,54.0,53.876472
1245,54.0,53.862747
1246,55.0,53.847496
1247,50.0,53.71944
1248,55.0,54.132713
1249,54.0,54.03635
1250,55.0,54.04039
1251,54.0,53.93377
1252,54.0,53.92641
1253,55.0,53.918236
1254,57.0,53.798042
1255,55.0,53.44227
1256,55.0,53.269188
1257,52.0,53.076878
1258,48.0,53.196533
1259,54.0,53.77393
1260,54.0,53.74881
1261,54.0,53.720898
1262,55.0,53.689888
1263,52.0,53.544323
1264,54.0,53.715916
1265,54.0,53.68435
1266,53.0,53.649277
1267,54.0,53.72142
1268,54.0,53.690468
1269,54.0,53.656075
1270,54.0,53.61786
1271,55.0,53.575397
1272,49.0,53.41711
1273,54.0,53.9079
1274,54.0,53.897667
1275,53.0,53.886295
1276,54.0,53.984776
1277,54.0,53.983086
1278,54.0,53.981205
1279,54.0,53.979115
1280,54.0,53.976795
1281,54.0,53.974216
1282,54.0,53.97135
1283,55.0,53.96817
1284,54.0,53.853523
1285,54.0,53.837246
1286,58.0,53.81916
1287,55.0,53.354626
1288,45.0,53.171806
1289,54.0,54.079784
1290,55.0,54.08865
1291,55.0,53.98739
1292,54.0,53.874878
1293,54.0,53.860973
1294,55.0,53.845528
1295,54.0,53.717255
1296,54.0,53.685837
1297,54.0,53.65093
1298,54.0,53.612144
1299,57.0,53.56905
1300,55.0,53.187836
1301,54.0,52.986485
1302,48.0,52.87387
1303,50.0,53.415413
1304,53.0,53.794907
1305,54.0,53.883232
1306,54.0,53.87026
1307,54.0,53.855843
1308,54.0,53.839825
1309,54.0,53.822025
1310,53.0,53.80225
1311,54.0,53.89139
1312,54.0,53.879326
1313,54.0,53.865917
1314,54.0,53.85102
1315,54.0,53.83447
1316,58.0,53.81608
1317,53.0,53.3512
1318,49.0,53.390224
1319,55.0,53.878025
1320,53.0,53.75336
1321,54.0,53.83707
1322,53.0,53.818966
1323,54.0,53.909966
1324,54.0,53.899963
1325,54.0,53.888847
1326,53.0,53.876495
1327,54.0,53.973885
1328,54.0,53.97098
1329,54.0,53.96776
1330,54.0,53.964176
1331,54.0,53.960194
1332,54.0,53.95577
1333,54.0,53.950855
1334,54.0,53.945396
1335,54.0,53.939327
1336,58.0,53.932587
1337,49.0,53.480656
1338,54.0,53.978508
1339,54.0,53.97612
1340,54.0,53.973465
1341,55.0,53.970516
1342,54.0,53.856133
1343,54.0,53.84015
1344,58.0,53.822388
1345,54.0,53.35821
1346,57.0,53.2869
1347,50.0,52.874332
1348,49.0,53.193703
1349,52.0,53.659668
1350,54.0,53.844078
1351,53.0,53.82675
1352,57.0,53.918617
1353,52.0,53.57624
1354,53.0,53.751377
1355,53.0,53.834866
1356,54.0,53.92763
1357,55.0,53.91959
1358,53.0,53.799545
1359,54.0,53.888386
1360,53.0,53.875984
1361,54.0,53.97332
1362,54.0,53.970356
1363,54.0,53.96706
1364,54.0,53.963398
1365,54.0,53.95933
1366,54.0,53.95481
1367,54.0,53.94979
1368,55.0,53.944214
1369,53.0,53.826904
1370,54.0,53.918785
1371,54.0,53.90976
1372,54.0,53.899734
1373,56.0,53.888596
1374,53.0,53.654
1375,54.0,53.72667
1376,56.0,53.6963
1377,53.0,53.44034
1378,51.0,53.489265
1379,52.0,53.765854
1380,54.0,53.96206
1381,53.0,53.957844
1382,53.0,54.064274
1383,54.0,54.18253
1384,55.0,54.202812
1385,55.0,54.11424
1386,52.0,54.015823
1387,54.0,54.239803
1388,56.0,54.26645
1389,61.0,54.073837
1390,51.0,53.304268
1391,53.0,53.5603
1392,49.0,53.62256
1393,54.0,54.136177
1394,54.0,54.151306
1395,55.0,54.168118
1396,55.0,54.075687
1397,54.0,53.97299
1398,53.0,53.969986
1399,54.0,54.077763
1400,54.0,54.086403
1401,58.0,54.096004
1402,49.0,53.662228
1403,54.0,54.180252
1404,54.0,54.20028
1405,57.0,54.22253
1406,54.0,53.91392
1407,55.0,53.904358
1408,53.0,53.782623
1409,52.0,53.869583
1410,54.0,54.077316
1411,55.0,54.085907
1412,54.0,53.98434
1413,54.0,53.9826
1414,54.0,53.980667
1415,54.0,53.97852
1416,54.0,53.97613
1417,57.0,53.97348
1418,52.0,53.6372
1419,54.0,53.81911
1420,53.0,53.79901
1421,58.0,53.887794
1422,49.0,53.430885
1423,54.0,53.923206
1424,54.0,53.914673
1425,54.0,53.905193
1426,55.0,53.894657
1427,55.0,53.771843
1428,54.0,53.635384
1429,54.0,53.59487
1430,53.0,53.54986
1431,55.0,53.610954
1432,54.0,53.456615
1433,55.0,53.39624
1434,55.0,53.21805
1435,52.0,53.020054
1436,53.0,53.133392
1437,55.0,53.148216
1438,49.0,52.942463
1439,50.0,53.380516
1440,54.0,53.75613
1441,54.0,53.729034
1442,54.0,53.69893
1443,53.0,53.665478
1444,54.0,53.73942
1445,53.0,53.71047
1446,54.0,53.78941
1447,54.0,53.76601
1448,54.0,53.740013
1449,55.0,53.711124
1450,55.0,53.567917
1451,50.0,53.4088
1452,55.0,53.787556
1453,58.0,53.65284
1454,49.0,53.169823
1455,54.0,53.633137
1456,54.0,53.592373
1457,55.0,53.54708
1458,54.0,53.385647
1459,54.0,53.317387
1460,54.0,53.24154
1461,54.0,53.157265
1462,54.0,53.06363
1463,53.0,52.959587
1464,54.0,52.955097
1465,54.0,52.838997
1466,60.0,52.709995
1467,51.0,51.899998
1468,52.0,52.0
