no,raw,smooth
0,329.0426,362.63925
1,336.5164,366.37222
2,343.65338,369.68954
3,350.427,372.58246
4,356.82864,375.0442
5,362.83444,377.06815
6,368.43344,378.64966
7,373.6147,379.7848
8,378.3589,380.47034
9,382.66,380.70496
10,386.502,380.48776
11,389.8781,379.81952
12,392.78146,378.7019
13,395.2013,377.1375
14,397.13446,375.13043
15,398.57382,372.68555
16,399.5171,369.80908
17,399.96204,366.50818
18,399.90698,362.79108
19,399.35205,358.6671
20,398.29926,354.14658
21,396.75104,349.24072
22,394.7099,343.9618
23,392.18344,338.32312
24,389.17487,332.33862
25,385.69537,326.0235
26,381.75198,319.39328
27,377.35168,312.46454
28,372.51086,305.25485
29,367.23572,297.78195
30,361.5459,290.06488
31,355.45245,282.12256
32,348.96658,273.9748
33,342.11243,265.64236
34,334.89868,257.1457
35,327.35223,248.50647
36,319.48767,239.74583
37,311.31946,230.88565
38,302.87808,221.94858
39,294.1743,212.9564
40,285.24048,203.93219
41,276.0937,194.89793
42,266.75104,185.87617
43,257.2473,176.89008
44,247.5946,167.9615
45,237.82884,159.11339
46,227.96858,150.36723
47,218.03236,141.74487
48,208.05716,133.2685
49,198.0557,124.95865
50,188.0652,116.836754
51,178.10452,108.922485
52,168.19252,101.23559
53,158.36606,93.79593
54,148.6377,86.62147
55,139.04361,79.73078
56,129.60184,73.14047
57,120.330315,66.86699
58,111.26355,60.926617
59,102.41314,55.333626
60,93.812004,50.10257
61,85.47615,45.245968
62,77.421585,40.775948
63,69.67825,36.704212
64,62.256073,33.040432
65,55.182632,29.794249
66,48.470993,26.973318
67,42.13417,24.584688
68,36.195724,22.634747
69,30.663254,21.127974
70,25.557312,20.068499
71,20.887192,19.458632
72,16.66211,19.299904
73,12.897751,19.592993
74,9.598953,20.336908
75,6.778,21.530014
76,4.4397583,23.169128
77,2.589096,25.25017
78,1.2328949,27.768068
79,0.3728943,30.716423
80,0.012283325,34.08793
81,0.15130615,37.87411
82,0.7901459,42.065536
83,1.9264069,46.65169
84,3.55867,51.621166
85,5.680847,56.961445
86,8.288483,62.65929
87,11.37709,68.70049
88,14.935196,75.06976
89,18.958221,81.75138
90,23.431229,88.7284
91,28.345352,95.98364
92,33.69171,103.499016
93,39.450394,111.25539
94,45.614075,119.23373
95,52.159805,127.41369
96,59.07486,135.77524
97,66.34656,144.2975
98,73.9478,152.95872
99,81.86889,161.73773
100,90.08035,170.61205
101,98.56644,179.56001
102,107.31133,188.5593
103,116.282524,197.58685
104,125.46853,206.62068
105,134.83519,215.63759
106,144.36465,224.61563
107,154.03903,233.53241
108,163.82239,242.36502
109,173.70218,251.092
110,183.64165,259.69086
111,193.622,268.14078
112,203.62437,276.42065
113,213.6116,284.50916
114,223.57089,292.38666
115,233.4652,300.03287
116,243.2759,307.42926
117,252.98438,314.55743
118,262.5545,321.3989
119,271.9741,327.93716
120,281.20804,334.15527
121,290.2391,340.03833
122,299.05005,345.5716
123,307.6081,350.74066
124,315.90228,355.53317
125,323.90176,359.93658
126,331.5917,363.94046
127,338.95728,367.53476
128,345.97113,370.71005
129,352.6242,373.45883
130,358.89188,375.7738
131,364.76254,377.64957
132,370.22482,379.08145
133,375.25836,380.06552
134,379.85675,380.59964
135,384.00284,380.6822
136,387.68927,380.31326
137,390.9086,379.4937
138,393.6489,378.2254
139,395.90665,376.5117
140,397.6734,374.3567
141,398.94635,371.76596
142,399.7226,368.74594
143,399.99927,365.3041
144,399.776,361.4491
145,399.05362,357.19055
146,397.83392,352.5391
147,396.11884,347.50635
148,393.91467,342.10498
149,391.22424,336.34836
150,388.05762,330.25104
151,384.42117,323.8281
152,380.32135,317.09555
153,375.77338,310.07047
154,370.78314,302.77014
155,365.36914,295.21317
156,359.542,287.41806
157,353.31235,279.4043
158,346.70337,271.1923
159,339.7235,262.8022
160,332.39877,254.25539
161,324.74326,245.57278
162,316.77112,236.77606
163,308.51205,227.88773
164,299.9766,218.92947
165,291.1965,209.92424
166,282.18857,200.894
167,272.96964,191.86127
168,263.57397,182.84923
169,254.01361,173.87982
170,244.32408,164.97606
171,234.52382,156.15962
172,224.63126,147.4525
173,214.68317,138.87709
174,204.6923,130.4542
175,194.6958,122.20552
176,184.71254,114.15105
177,174.76143,106.31088
178,164.87944,98.70527
179,155.07925,91.352585
180,145.39731,84.27184
181,135.85176,77.480125
182,126.4608,70.99439
183,117.25934,64.83146
184,108.25916,59.00614
185,99.493744,53.533585
186,90.97941,48.426903
187,82.73248,43.698845
188,74.78366,39.361774
189,67.14308,35.42601
190,59.839172,31.901892
191,52.88542,28.79775
192,46.295303,26.121344
193,40.093307,23.879793
194,34.2874,22.078293
195,28.899124,20.721725
196,23.938324,19.813128
197,19.414734,19.354773
198,15.345184,19.348112
199,11.734909,19.792881
200,8.597305,20.688211
201,5.9378815,22.031647
202,3.762085,23.819843
203,2.078003,26.048483
204,0.88783264,28.71187
205,0.19596863,31.80343
206,0.0032653809,35.315372
207,0.31054688,39.23894
208,1.1166687,43.56432
209,2.4205933,48.280727
210,4.2174835,53.3763
211,6.503479,58.83839
212,9.2747345,64.65338
213,12.52092,70.806564
214,16.237885,77.28275
215,20.41182,84.06552
216,25.034393,91.13815
217,30.097305,98.48302
218,35.581726,106.081436
219,41.480606,113.91474
220,47.772064,121.96298
221,54.443817,130.20642
222,61.483597,138.62448
223,68.86525,147.1957
224,76.57931,155.89908
225,84.5971,164.71239
226,92.9032,173.61409
227,101.48216,182.58197
228,110.30209,191.59306
229,119.35171,200.6254
230,128.59734,209.65582
231,138.02136,218.66234
232,147.6061,227.62245
233,157.31593,236.51317
234,167.13843,245.31287
235,177.03705,253.99893
236,186.99304,262.55026
237,196.98763,270.94553
238,206.98366,279.16306
239,216.96832,287.18298
240,226.90448,294.98462
241,236.77344,302.54907
242,246.55646,309.85748
243,256.21716,316.89093
244,265.7432,323.63248
245,275.09912,330.06464
246,284.26746,336.1719
247,293.23062,341.93906
248,301.95538,347.3511
249,310.43048,352.3951
250,318.62448,357.05783
251,326.5221,361.3282
252,334.10815,365.19553
253,341.3545,368.64966
254,348.25177,371.68246
255,354.77432,374.2859
256,360.91022,376.45386
257,366.64752,378.18094
258,371.96484,379.46243
259,376.8554,380.29553
260,381.30103,380.67776
261,385.29373,380.60852
262,388.82553,380.08795
263,391.88327,379.1171
264,394.46307,377.69864
265,396.55536,375.8359
266,398.1566,373.53375
267,399.26328,370.7979
268,399.87134,367.6351
269,399.97998,364.0533
270,399.5888,360.0615
271,398.699,355.66956
272,397.31183,350.88852
273,395.43237,345.7304
274,393.0631,340.20798
275,390.2128,334.3352
276,386.88727,328.1266
277,383.09244,321.59763
278,378.84235,314.7649
279,374.14246,307.64517
280,369.01025,300.2566
281,363.4558,292.6173
282,357.48926,284.74637
283,351.1328,276.66385
284,344.39453,268.38953
285,337.2995,259.94452
286,329.86148,251.34952
287,322.09418,242.62598
288,314.02652,233.79617
289,305.66882,224.8817
290,297.05212,215.90536
291,288.19296,206.88905
292,279.10788,197.8553
293,269.83063,188.82724
294,260.37314,179.82687
295,250.77051,170.8773
296,241.04105,162.00027
297,231.20302,153.21797
298,221.29303,144.55298
299,211.32373,136.02632
300,201.33223,127.65994
301,191.33739,119.47414
302,181.35811,111.489334
303,171.43152,103.72614
304,161.57028,96.20333
305,151.81111,88.94034
306,142.17233,81.9547
307,132.67227,75.263855
308,123.346245,68.88515
309,114.20622,62.83392
310,105.286156,57.125885
311,96.602715,51.774742
312,88.17253,46.793858
313,80.02695,42.196228
314,72.176384,37.992813
315,64.65004,34.194637
316,57.461853,30.810705
317,50.625687,27.849466
318,44.166977,25.318775
319,38.09401,23.22453
320,32.429337,21.572367
321,27.183304,20.366037
322,22.36621,19.608564
323,17.995972,19.302158
324,14.078171,19.44729
325,10.627365,20.04386
326,7.6496735,21.090137
327,5.1511536,22.583523
328,3.1410828,24.520452
329,1.6220398,26.895939
330,0.5996704,29.70415
331,0.07545471,32.93798
332,0.050842285,36.589375
333,0.5259247,40.64921
334,1.5000763,45.107353
335,2.9697113,49.952606
336,4.9315643,55.17293
337,7.3824005,60.755306
338,10.31311,66.68563
339,13.71991,72.94925
340,17.590149,79.53029
341,21.916107,86.41252
342,26.689987,93.57879
343,31.894089,101.01088
344,37.521713,108.69053
345,43.55194,116.598175
346,49.973022,124.714424
347,56.773163,133.01903
348,63.927094,141.4908
349,71.425644,150.10898
350,79.24092,158.85158
351,87.35789,167.69722
352,95.76149,176.62381
353,104.42045,185.6085
354,113.32369,194.62941
355,122.43812,203.66339
356,131.7463,212.68843
357,141.23085,221.682
358,150.85648,230.62103
359,160.61086,239.48376
360,170.45773,248.24744
361,180.3784,256.89075
362,190.3542,265.39212
363,200.348,273.72968
364,210.34706,281.8832
365,220.31415,289.8317
366,230.23048,297.55588
367,240.07727,305.0365
368,249.8179,312.2542
369,259.4399,319.1916
370,268.90753,325.83066
371,278.20297,332.15546
372,287.30853,338.1502
373,296.19037,343.7993
374,304.8371,349.08917
375,313.21655,354.00607
376,321.31317,358.53824
377,329.1114,362.67438
378,336.58218,366.40363
379,343.716,369.7171
380,350.48633,372.6061
381,356.8807,375.06387
382,362.88672,377.08423
383,368.48196,378.66174
384,373.65936,379.79282
385,378.3996,380.47433
386,382.69415,380.70486
387,386.53455,380.48386
388,389.90637,379.81158
389,392.80542,378.68997
390,395.2209,377.12158
391,397.1486,375.11053
392,398.58453,372.66187
393,399.52332,369.7816
394,399.96375,366.47696
395,399.90424,362.75623
396,399.34528,358.6287
397,398.2875,354.1046
398,396.73486,349.1954
399,394.68933,343.91324
400,392.1585,338.27145
401,389.1476,332.28403
402,385.66193,325.96585
403,381.7144,319.33298
404,377.31006,312.4017
405,372.4653,305.18967
406,367.1897,297.7146
407,361.4928,289.99515
408,355.3958,282.05096
409,348.9065,273.90155
410,342.04904,265.5677
411,334.83673,257.06976
412,327.2828,248.42899
413,319.41544,239.66745
414,311.24466,230.80656
415,302.80084,221.869
416,294.10025,212.87657
417,285.159,203.85173
418,276.0104,194.8176
419,266.66617,185.79617
420,257.161,176.81062
421,247.51308,167.88281
422,237.74043,159.035
423,227.87943,150.28996
424,217.9427,141.66891
425,207.9672,133.19405
426,197.97177,124.88592
427,187.97533,116.76527
428,178.01503,108.85304
429,168.10364,101.16838
430,158.27798,93.73113
431,148.55658,86.559265
432,138.95787,79.67068
433,129.51756,73.08321
434,120.24774,66.81273
435,111.18287,60.875504
436,102.33989,55.285797
437,93.73572,50.057564
438,85.40234,45.204433
439,77.35045,40.738003
440,69.60997,36.669952
441,62.195236,33.009953
442,55.120544,29.767143
443,48.412247,26.9501
444,42.07892,24.565418
445,36.144073,22.619474
446,30.618591,21.116743
447,25.513306,20.060984
448,20.847153,19.455172
449,16.626144,19.300508
450,12.865967,19.59766
451,9.573288,20.345627
452,6.754776,21.542553
453,4.4209137,23.18564
454,2.5746765,25.27061
455,1.2229309,27.792383
456,0.3677826,30.744545
457,0.011306763,34.119743
458,0.15483093,37.909573
459,0.79815674,42.104546
460,1.9389038,46.694145
461,3.5744476,51.66695
462,5.702179,57.010563
463,8.314163,62.7115
464,11.407043,68.755646
465,14.969345,75.127716
466,18.993896,81.81198
467,23.473541,88.79177
468,28.391571,96.049355
469,33.74173,103.56689
470,39.504105,111.32523
471,45.66745,119.30537
472,52.22046,127.487366
473,59.13878,135.85036
474,66.41354,144.37387
475,74.017715,153.03613
476,81.93662,161.81596
477,90.15559,170.69145
478,98.64404,179.63988
479,107.39113,188.6394
480,116.3643,197.667
481,125.54642,206.70065
482,134.92032,215.71779
483,144.45114,224.69528
484,154.12668,233.6113
485,163.91095,242.44292
486,173.78539,251.1687
487,183.73138,259.76685
488,193.71199,268.21524
489,203.7144,276.4934
490,213.70143,284.58
491,223.65424,292.45538
492,233.55396,300.09998
493,243.3638,307.49396
494,253.0712,314.6195
495,262.64,321.45822
496,272.05237,327.9936
497,281.2903,334.2093
498,290.31946,340.08917
499,299.12827,345.61914
500,307.684,350.7848
501,315.97067,355.57376
502,323.9724,359.9741
503,331.6595,363.97427
504,339.02203,367.56482
505,346.03265,370.73627
506,352.67847,373.4811
507,358.94653,375.7925
508,364.81357,377.6643
509,370.27206,379.09216
510,375.30173,380.07217
511,379.89343,380.60223
512,384.03812,380.681
513,387.72034,380.308
514,390.93542,379.48444
515,393.6714,378.21213
516,395.92352,376.49445
517,397.68707,374.33566
518,398.95557,371.74106
519,399.72733,368.71722
520,399.9995,365.27167
521,399.77203,361.41306
522,399.04486,357.15094
523,397.8207,352.49606
524,396.10117,347.46
525,393.8926,342.05542
526,391.19965,336.29575
527,388.02698,330.1953
528,384.3863,323.76956
529,380.28238,317.03436
530,375.7304,310.00684
531,370.73944,302.70425
532,365.31848,295.1448
533,359.48767,287.34772
534,353.25452,279.33218
535,346.64215,271.1186
536,339.66345,262.7271
537,332.33127,254.17863
538,324.67285,245.49501
539,316.698,236.69748
540,308.4364,227.80853
541,299.9039,218.84988
542,291.11636,209.84389
543,282.1065,200.81363
544,272.8858,191.7811
545,263.4886,182.76947
546,253.93279,173.80067
547,244.23627,164.89711
548,234.43513,156.08165
549,224.5419,147.37572
550,214.59338,138.8017
551,204.6084,130.3804
552,194.60579,122.13284
553,184.62277,114.0803
554,174.6721,106.24225
555,164.79082,98.63894
556,154.99747,91.288734
557,145.3107,84.209984
558,135.76648,77.42102
559,126.37708,70.938194
560,117.177376,64.77832
561,108.18459,58.956207
562,99.41591,53.48639
563,90.90394,48.383106
564,82.65957,43.658573
565,74.713455,39.32513
566,67.08035,35.393097
567,59.774963,31.87229
568,52.824448,28.771992
569,46.2377,26.099497
570,40.039246,23.86192
571,34.240417,22.064438
572,28.852524,20.711552
573,23.895615,19.807001
574,19.376053,19.352713
575,15.310623,19.35012
576,11.706589,19.798954
577,8.571213,20.698107
578,5.9161224,22.04554
579,3.7447205,23.837698
580,2.065094,26.070251
581,0.8799591,28.737494
582,0.1920166,31.832777
583,0.0037994385,35.34842
584,0.31558228,39.2756
585,1.1261902,43.604492
586,2.4336395,48.324306
587,4.235901,53.42327
588,6.5262756,58.888535
589,9.301849,64.706566
590,12.552292,70.86265
591,16.271027,77.34158
592,20.451447,84.1272
593,25.078018,91.202286
594,30.144821,98.54942
595,35.63301,106.14994
596,41.5318,113.98516
597,47.830475,122.03553
598,54.50557,130.28053
599,61.548553,138.69998
600,68.93324,147.27235
601,76.64536,155.9767
602,84.670654,164.7913
603,92.979256,173.6936
604,101.56053,182.66187
605,110.38258,191.67313
606,119.42852,200.70541
607,128.68146,209.73618
608,138.10696,218.74226
609,147.693,227.70175
610,157.4039,236.59161
611,167.22122,245.39026
612,177.1265,254.07571
613,187.08289,262.62564
614,197.07765,271.0193
615,207.07364,279.23502
616,217.05194,287.25296
617,226.9937,295.05307
618,236.86194,302.61523
619,246.64401,309.92117
620,256.30356,316.95197
621,265.82245,323.69067
622,275.18256,330.12048
623,284.3491,336.2247
624,293.31027,341.98868
625,302.0328,347.3974
626,310.50046,352.43793
627,318.69696,357.09766
628,326.5918,361.3644
629,334.17496,365.22803
630,341.41815,368.67838
631,348.30804,371.7073
632,354.83133,374.30722
633,360.96368,376.47122
634,366.69727,378.19427
635,372.0108,379.4717
636,376.8946,380.30072
637,381.33905,380.6792
638,385.3276,380.6059
639,388.85516,380.08127
640,391.90866,379.10638
641,394.48267,377.68393
642,396.57196,375.8174
643,398.16876,373.51135
644,399.271,370.77167
645,399.87454,367.6051
646,399.97876,364.01962
647,399.583,360.0242
648,398.68872,355.62878
649,397.29706,350.84436
650,395.4132,345.68295
651,393.04114,340.15738
652,390.18494,334.28143
653,386.85522,328.06995
654,383.0562,321.53827
655,378.80203,314.70294
656,374.1012,307.5808
657,368.9621,300.18967
658,363.40393,292.5483
659,357.43378,284.67548
660,351.0738,276.59125
661,344.33643,268.3154
662,337.234,259.86862
663,329.79297,251.27248
664,322.02286,242.54799
665,313.95255,233.71745
666,305.59753,224.80246
667,296.9734,215.82524
668,288.11215,206.80878
669,279.02518,197.77507
670,269.74628,188.7473
671,260.2931,179.74742
672,250.68341,170.7979
673,240.95291,161.92172
674,231.11409,153.14049
675,221.20349,144.47676
676,211.23993,135.95157
677,201.24219,127.58619
678,191.24744,119.40219
679,181.26846,111.41938
680,171.3424,103.65837
681,161.48793,96.137924
682,151.72374,88.87681
683,142.08615,81.89382
684,132.5875,75.20579
685,123.2631,68.83005
686,114.13041,62.78193
687,105.20686,57.076546
688,96.52566,51.728733
689,88.09789,46.751297
690,79.954926,42.157234
691,72.11185,37.957493
692,64.58377,34.162567
693,57.398697,30.782433
694,50.565826,27.82507
695,44.110565,25.298319
696,38.044754,23.208069
697,32.38022,21.559547
698,27.138,20.357252
699,22.32486,19.603836
700,17.958649,19.3015
701,14.047241,19.450706
702,10.598434,20.051092
703,7.6250305,21.101389
704,5.1308594,22.598763
705,3.1251984,24.53964
706,1.6113892,26.919025
707,0.59272766,29.730986
708,0.07299805,32.96857
709,0.052886963,36.623634
710,0.5324707,40.687054
711,1.510376,45.148678
712,2.985199,49.99738
713,4.951462,55.22096
714,7.406662,60.806458
715,10.34166,66.73977
716,13.750473,73.006226
717,17.62709,79.5902
718,21.957092,86.47499
719,26.734955,93.64365
720,31.942886,101.07795
721,37.570663,108.75963
722,43.608047,116.66952
723,50.032578,124.78747
724,56.836014,133.09357
725,63.993103,141.56662
726,71.489944,150.18591
727,79.312706,158.9299
728,87.432304,167.77626
729,95.83833,176.70337
730,104.49955,185.68839
731,113.39934,194.70938
732,122.52112,203.74384
733,131.83095,212.7686
734,141.31693,221.76169
735,150.94376,230.7
736,160.69315,239.56181
737,170.54678,248.325
738,180.46802,256.96704
739,190.44414,265.46695
740,200.43805,273.80283
741,210.43088,281.95447
742,220.40372,289.90155
743,230.31947,297.62354
744,240.16548,305.10178
745,249.9051,312.31693
746,259.52005,319.2516
747,268.99203,325.88846
748,278.28583,332.2103
749,287.38953,338.2019
750,296.2693,343.84775
751,304.90857,349.13425
752,313.29077,354.04822
753,321.38474,358.57684
754,329.1801,362.70932
755,336.64795,366.4348
756,343.77435,369.74448
757,350.54565,372.63004
758,356.93655,375.08386
759,362.93893,377.10022
760,368.53046,378.6737
761,373.701,379.80072
762,378.4403,380.4785
763,382.73077,380.70496
764,386.567,380.4799
765,389.9346,379.80356
766,392.8277,378.6779
767,395.24042,377.10568
768,397.16373,375.09073
769,398.5952,372.63818
770,399.5295,369.75406
771,399.96533,366.4457
772,399.90143,362.7213
773,399.33795,358.5902
774,398.27573,354.06268
775,396.71863,349.15012
776,394.6701,343.86472
777,392.1335,338.2197
778,389.11835,332.22928
779,385.62842,325.90826
780,381.67676,319.2727
781,377.2712,312.33896
782,372.41968,305.12427
783,367.14026,297.647
784,361.43964,289.92554
785,355.3391,281.97955
786,348.85046,273.8285
787,341.98566,265.4927
788,334.7702,256.9935
789,327.21335,248.35165
790,319.3432,239.58926
791,311.1749,230.72772
792,302.72363,221.78915
793,294.02078,212.79643
794,285.07755,203.7715
795,275.92712,194.7375
796,266.58704,185.71643
797,257.07474,176.7308
798,247.42561,167.80371
799,237.65201,158.95683
800,227.79027,150.21294
801,217.8591,141.59323
802,207.87723,133.11925
803,197.88174,124.81281
804,187.88547,116.694046
805,177.92555,108.78388
806,168.02078,101.10148
807,158.18994,93.666
808,148.46957,86.49667
809,138.87213,79.6108
810,129.43332,73.02621
811,120.17077,66.75875
812,111.1022,60.82408
813,102.26132,55.237625
814,93.65945,50.01277
815,85.32857,45.163143
816,77.28416,40.70032
817,69.5417,36.635452
818,62.12999,32.979206
819,55.058502,29.74023
820,48.353546,26.92709
821,42.02742,24.546371
822,36.09247,22.604034
823,30.57074,21.10532
824,25.469315,20.053608
825,20.807144,19.451862
826,16.592651,19.301275
827,12.834213,19.602234
828,9.545792,20.354237
829,6.731598,21.555176
830,4.4020996,23.20224
831,2.561264,25.291145
832,1.2130127,27.816689
833,0.36235046,30.772654
834,0.010375977,34.151577
835,0.15838623,37.945045
836,0.8059387,42.143566
837,1.9514313,46.736637
838,3.5914154,51.712772
839,5.722824,57.05959
840,8.339859,62.763676
841,11.43602,68.81077
842,15.003555,75.185745
843,19.032211,81.87266
844,23.514435,88.854935
845,28.437836,96.115
846,33.790085,103.63469
847,39.55783,111.39521
848,45.72473,119.37715
849,52.279083,127.56076
850,59.202713,135.9254
851,66.4783,144.45015
852,74.087654,153.1137
853,82.009315,161.89436
854,90.228294,170.7705
855,98.72167,179.71964
856,107.46823,188.71942
857,116.4461,197.74733
858,125.63,206.7808
859,135.00258,215.79756
860,144.53763,224.77478
861,154.21133,233.69002
862,163.99951,242.521
863,173.87463,251.24562
864,183.81808,259.8424
865,193.80199,268.28955
866,203.80138,276.56595
867,213.79126,284.6509
868,223.74364,292.52423
869,233.63971,300.16653
870,243.45169,307.5584
871,253.15504,314.6814
872,262.72552,321.51767
873,272.13635,328.05014
874,281.36978,334.26282
875,290.39978,340.13983
876,299.2038,345.6665
877,307.75983,350.82904
878,316.044,355.61453
879,324.04065,360.01126
880,331.72723,364.00803
881,339.08453,367.5948
882,346.09418,370.7626
883,352.73657,373.50357
884,358.99933,375.81104
885,364.86456,377.67902
886,370.3177,379.10284
887,375.34503,380.07898
888,379.93274,380.60498
889,384.07214,380.67966
890,387.7514,380.3027
891,390.9613,379.47507
892,393.69385,378.19882
893,395.9416,376.47717
894,397.70026,374.31448
895,398.96475,371.71606
896,399.73187,368.68845
897,399.9997,365.2392
898,399.7677,361.37692
899,399.03632,357.1113
900,397.80743,352.45297
901,396.08405,347.4136
902,393.8705,342.0058
903,391.17322,336.24307
904,387.9973,330.13974
905,384.35144,323.71112
906,380.2447,316.9733
907,375.68744,309.94315
908,370.69254,302.6382
909,365.2695,295.07663
910,359.43335,287.27744
911,353.1986,279.26013
912,346.58093,271.04474
913,339.599,262.65186
914,332.26605,254.1022
915,324.60245,245.41733
916,316.62735,236.61897
917,308.36075,227.72916
918,299.82587,218.7701
919,291.0389,209.7639
920,282.02438,200.73334
921,272.8048,191.701
922,263.4032,182.68947
923,253.84608,173.72128
924,244.15144,164.81853
925,234.34644,156.00377
926,224.45558,147.29903
927,214.50359,138.72607
928,204.51837,130.30635
929,194.51884,122.06058
930,184.533,114.00966
931,174.58583,106.17374
932,164.70218,98.57239
933,154.90976,91.22463
934,145.22702,84.14851
935,135.68123,77.362015
936,126.29621,70.8821
937,117.095436,64.72498
938,108.104614,58.906048
939,99.34074,53.43954
940,90.828476,48.33941
941,82.589134,43.618404
942,74.64329,39.288322
943,67.01309,35.359997
944,59.71295,31.842987
945,52.763504,28.746325
946,46.182114,26.077751
947,39.985214,23.843933
948,34.19005,22.050457
949,28.807526,20.701614
950,23.852951,19.800959
951,19.338715,19.350737
952,15.276093,19.352072
953,11.67627,19.804958
954,8.546036,20.708145
955,5.894394,22.059492
956,3.7279816,23.855614
957,2.0522003,26.092018
958,0.87153625,28.763111
959,0.18821716,31.862175
960,0.0043792725,35.381504
961,0.32048035,39.312294
962,1.1357574,43.64472
963,2.447647,48.36794
964,4.253723,53.470192
965,6.549118,58.93869
966,9.3280945,64.75976
967,12.58371,70.91883
968,16.306625,77.40051
969,20.489792,84.18873
970,25.121704,91.26639
971,30.190765,98.6158
972,35.68431,106.21859
973,41.58676,114.05574
974,47.886932,122.10785
975,54.567368,130.35461
976,61.611343,138.77542
977,69.00125,147.34921
978,76.716255,156.05453
979,84.74172,164.8699
980,93.05532,173.77304
981,101.63626,182.74168
982,110.46308,191.7534
983,119.51094,200.78566
984,128.76273,209.8162
985,138.1926,218.82214
986,147.77695,227.78099
987,157.49188,236.67033
988,167.31004,245.46794
989,177.2129,254.15216
990,187.17274,262.701
991,197.16463,271.09302
992,207.16362,279.30728
993,217.14165,287.32324
994,227.07988,295.1212
995,236.95042,302.68137
996,246.72859,309.98483
997,256.38995,317.0133
998,265.90747,323.74924
999,275.26318,330.1761
1000,284.43073,336.27753
1001,293.3872,342.03827
1002,302.11023,347.44397
1003,310.5755,352.48105
1004,318.76694,357.1372
1005,326.6615,361.40057
1006,334.23944,365.2605
1007,341.4818,368.70728
1008,348.36847,371.73233
1009,354.88638,374.3283
1010,361.0171,376.48853
1011,366.74533,378.20758
1012,372.0567,379.48117
1013,376.93658,380.30612
1014,381.37573,380.6805
1015,385.36145,380.60327
1016,388.8838,380.07462
1017,391.934,379.09583
1018,394.50366,377.66937
1019,396.588,375.7989
1020,398.1809,373.48898
1021,399.27838,370.74545
1022,399.87772,367.57513
1023,399.97745,363.98596
1024,399.5774,359.9869
1025,398.6784,355.58798
1026,397.2828,350.80017
1027,395.39404,345.63544
1028,393.0176,340.10672
1029,390.15802,334.22775
1030,386.8231,328.01328
1031,383.02112,321.47885
1032,378.76166,314.6408
1033,374.05685,307.5163
1034,368.91553,300.12292
1035,363.352,292.4793
1036,357.3801,284.60458
1037,351.01477,276.51843
1038,344.2741,268.24106
1039,337.17072,259.79297
1040,329.7245,251.19547
1041,321.95395,242.47003
1042,313.87854,233.6385
1043,305.52106,224.72296
1044,296.8973,215.74539
1045,288.0313,206.72852
1046,278.94525,197.69487
1047,269.66187,188.66705
1048,260.20724,179.66763
1049,250.59926,170.7188
1050,240.86479,161.8432
1051,231.02815,153.06303
1052,221.11397,144.40025
1053,211.15004,135.87651
1054,201.15521,127.512794
1055,191.15749,119.33031
1056,181.18187,111.34951
1057,171.2533,103.59036
1058,161.39957,96.072266
1059,151.63933,88.813675
1060,141.99997,81.833046
1061,132.5056,75.147835
1062,123.179955,68.77475
1063,114.0491,62.729725
1064,105.13029,57.027573
1065,96.44862,51.68283
1066,88.02581,46.708855
1067,79.88292,42.11808
1068,72.04263,37.921986
1069,64.519775,34.130802
1070,57.335587,30.754251
1071,50.50804,27.80077
1072,44.05417,25.27774
1073,37.991943,23.191471
1074,32.332764,21.546974
1075,27.092743,20.348555
1076,22.284943,19.599201
1077,17.921387,19.300785
1078,14.014114,19.454052
1079,10.570496,20.05849
1080,7.6004333,21.112715
1081,5.111313,22.614079
1082,3.109375,24.55883
1083,1.5999908,26.942104
1084,0.5860443,29.757895
1085,0.07058716,32.99921
1086,0.054901123,36.657948
1087,0.53904724,40.724953
1088,1.5214386,45.190052
1089,3.000183,50.042118
1090,4.97139,55.269
1091,7.43013,60.857624
1092,10.3702545,66.794014
1093,13.783295,73.063324
1094,17.662811,79.65
1095,21.998138,86.53747
1096,26.778412,93.7085
1097,31.991714,101.14519
1098,37.623215,108.82891
1099,43.662292,116.740654
1100,50.092163,124.86048
1101,56.89679,133.16808
1102,64.05911,141.64267
1103,71.558945,150.26306
1104,79.38209,159.00797
1105,87.50674,167.8553
1106,95.9126,176.78293
1107,104.57867,185.76852
1108,113.48051,194.78963
1109,122.60131,203.82397
1110,131.91559,212.84872
1111,141.40009,221.84131
1112,151.03105,230.77922
1113,160.78143,239.64014
1114,170.63283,248.40222
1115,180.55762,257.04327
1116,190.53102,265.5417
1117,200.52809,273.8762
1118,210.52078,282.026
1119,220.49023,289.97104
1120,230.40848,297.69116
1121,240.25069,305.167
1122,249.99228,312.37994
1123,259.60602,319.31192
1124,269.07367,325.94592
1125,278.36865,332.26505
1126,287.46777,338.25354
1127,296.3482,343.89642
1128,304.98523,349.17957
1129,313.36243,354.09006
1130,321.4563,358.61536
1131,329.24652,362.74414
1132,336.71368,366.4661
1133,343.83694,369.77194
1134,350.60287,372.65363
1135,356.99234,375.1037
1136,362.98935,377.1161
1137,368.57892,378.68576
1138,373.7456,379.80878
1139,378.47955,380.48245
1140,382.76736,380.705
1141,386.5983,380.47583
1142,389.96277,379.79556
1143,392.85156,378.6659
1144,395.25925,377.08972
1145,397.17883,375.0709
1146,398.60547,372.61444
1147,399.53564,369.72656
1148,399.96698,366.41446
1149,399.89868,362.6864
1150,399.33063,358.5517
1151,398.2643,354.0207
1152,396.7024,349.10477
1153,394.6494,343.81616
1154,392.10934,338.16803
1155,389.08905,332.17456
1156,385.59604,325.85074
1157,381.6391,319.21237
1158,377.2295,312.27606
1159,372.3756,305.05902
1160,367.0908,297.57944
1161,361.3883,289.85596
1162,355.28235,281.90793
1163,348.79028,273.75522
1164,341.92438,265.418
1165,334.70367,256.9173
1166,327.1462,248.27435
1167,319.27094,239.51083
1168,311.10004,230.6486
1169,302.649,221.70956
1170,293.9413,212.71631
1171,284.9988,203.69131
1172,275.8438,194.65715
1173,266.50214,185.63641
1174,256.99136,176.65135
1175,247.33813,167.72469
1176,237.56657,158.87875
1177,227.70111,150.13567
1178,217.76942,141.51729
1179,207.7903,133.04483
1180,197.79172,124.73978
1181,187.79863,116.622894
1182,177.83606,108.714485
1183,167.93192,101.03431
1184,158.10489,93.60125
1185,148.38258,86.43418
1186,138.78932,79.551025
1187,129.34906,72.969
1188,120.088234,66.70455
1189,111.0243,60.773033
1190,102.182785,55.18956
1191,93.58579,49.968094
1192,85.254814,45.121685
1193,77.21307,40.66245
1194,69.475784,36.601273
1195,62.064774,32.948547
1196,54.99858,29.713411
1197,48.29486,26.903948
1198,41.972214,24.52718
1199,36.04265,22.588842
1200,30.522919,21.093975
1201,25.42685,20.046314
1202,20.767181,19.448479
1203,16.556763,19.301958
1204,12.803574,19.606981
1205,9.518326,20.362915
1206,6.709244,21.567871
1207,4.3833313,23.21883
1208,2.546936,25.311663
1209,1.2034607,27.841078
1210,0.3569641,30.800814
1211,0.009506226,34.183464
1212,0.1619873,37.98057
1213,0.8137512,42.18264
1214,1.963562,46.779182
1215,3.608429,51.758698
1216,5.744217,57.108727
1217,8.365601,62.815895
1218,11.465027,68.86593
1219,15.036621,75.24381
1220,19.070572,81.9335
1221,23.556824,88.918274
1222,28.48413,96.18066
1223,33.838486,103.7025
1224,39.609787,111.46517
1225,45.782043,119.44911
1226,52.339798,127.634346
1227,59.266663,136.00041
1228,66.54306,144.52638
1229,74.15526,153.1912
1230,82.08202,161.97296
1231,90.303566,170.84973
1232,98.799324,179.79932
1233,107.54535,188.79933
1234,116.52513,197.82756
1235,125.71358,206.86118
1236,135.08774,215.8776
1237,144.62415,224.85425
1238,154.29602,233.7687
1239,164.08508,242.59901
1240,173.96391,251.32278
1241,183.90782,259.9182
1242,193.89197,268.3638
1243,203.88834,276.63846
1244,213.87804,284.72183
1245,223.83304,292.59335
1246,233.72845,300.2334
1247,243.53957,307.62286
1248,253.23889,314.74326
1249,262.8081,321.5771
1250,272.22034,328.10696
1251,281.45203,334.3166
1252,290.48007,340.19043
1253,299.27933,345.7138
1254,307.8331,350.87323
1255,316.1173,355.65546
1256,324.11127,360.0486
1257,331.79498,364.04166
1258,339.14703,367.62463
1259,346.15356,370.78882
1260,352.7947,373.5261
1261,359.0539,375.8296
1262,364.91553,377.69354
1263,370.36328,379.11334
1264,375.38687,380.0856
1265,379.97205,380.60767
1266,384.10736,380.6783
1267,387.7824,380.29733
1268,390.98712,379.46567
1269,393.71548,378.1855
1270,395.9596,376.45993
1271,397.71387,374.29333
1272,398.97388,371.69107
1273,399.73633,368.65964
1274,399.99982,365.2067
1275,399.76334,361.34082
1276,399.0275,357.07166
1277,397.79413,352.4099
1278,396.0669,347.36722
1279,393.84912,341.95615
1280,391.14676,336.19028
1281,387.96655,330.084
1282,384.3165,323.65262
1283,380.20697,316.9122
1284,375.6458,309.87946
1285,370.6456,302.57208
1286,365.21878,295.00836
1287,359.37897,287.2072
1288,353.1427,279.18814
1289,346.52173,270.97098
1290,339.53452,262.57645
1291,332.1985,254.02556
1292,324.53198,245.33968
1293,316.5567,236.54053
1294,308.28763,227.64984
1295,299.74786,218.6901
1296,290.95874,209.68367
1297,281.94226,200.65312
1298,272.72375,191.621
1299,263.3207,182.6096
1300,253.75937,173.6417
1301,244.06363,164.73975
1302,234.25774,155.926
1303,224.36925,147.22246
1304,214.41682,138.6506
1305,204.42836,130.23213
1306,194.42883,121.988106
1307,184.44324,113.93913
1308,174.49954,106.10535
1309,164.61656,98.50599
1310,154.82204,91.16038
1311,145.14044,84.08687
1312,135.59598,77.30314
1313,126.215355,70.82616
1314,117.01629,64.67181
1315,108.02466,58.85576
1316,99.26294,53.392548
1317,90.75305,48.295837
1318,82.51873,43.57837
1319,74.57553,39.251663
1320,66.94585,35.32679
1321,59.64879,31.81356
1322,52.702576,28.720757
1323,46.126526,26.05611
1324,39.933044,23.826065
1325,34.13971,22.0364
1326,28.760986,20.691587
1327,23.810333,19.794989
1328,19.301422,19.34884
1329,15.242767,19.35411
1330,11.645966,19.810926
1331,8.52002,20.718145
1332,5.872711,22.073494
1333,3.7112885,23.873583
1334,2.039795,26.11384
1335,0.8631592,28.788734
1336,0.18432617,31.891579
1337,0.004989624,35.414608
1338,0.3254242,39.34901
1339,1.1450348,43.684963
1340,2.4617157,48.411625
1341,4.272217,53.517174
1342,6.571991,58.988834
1343,9.35437,64.81293
1344,12.61409,70.97499
1345,16.34224,77.45954
1346,20.52951,84.25036
1347,25.165405,91.33046
1348,30.23674,98.68214
1349,35.733917,106.287186
1350,41.641724,114.126434
1351,47.945404,122.1803
1352,54.62918,130.42862
1353,61.67415,138.85078
1354,69.067,147.42596
1355,76.78716,156.13252
1356,84.81532,164.94868
1357,93.131424,173.85239
1358,101.712006,182.8214
1359,110.54087,191.83356
1360,119.59336,200.86607
1361,128.84686,209.89638
1362,138.27823,218.90189
1363,147.86093,227.86008
1364,157.57687,236.74889
1365,167.39886,245.54578
1366,177.30237,254.22878
1367,187.26259,262.77615
1368,197.2516,271.16656
1369,207.25055,279.37933
1370,217.23135,287.39365
1371,227.16908,295.18945
1372,237.03891,302.74728
1373,246.81317,310.04822
1374,256.4734,317.07437
1375,265.9925,323.80783
1376,275.34656,330.23178
1377,284.51233,336.33014
1378,293.4641,342.08768
1379,302.18503,347.4903
1380,310.6505,352.52423
1381,318.83936,357.17685
1382,326.73117,361.43658
1383,334.3039,365.29276
1384,341.54327,368.73596
1385,348.42883,371.7574
1386,354.94333,374.34943
1387,361.0705,376.50568
1388,366.79333,378.2207
1389,372.10107,379.49045
1390,376.97855,380.3115
1391,381.41364,380.68185
1392,385.39523,380.60056
1393,388.91235,380.0678
1394,391.95844,379.08508
1395,394.5246,377.65472
1396,396.60455,375.7803
1397,398.193,373.4665
1398,399.28577,370.71912
1399,399.88074,367.54504
1400,399.97607,363.9522
1401,399.57153,359.94955
1402,398.66806,355.54712
1403,397.2685,350.75592
1404,395.37543,345.5879
1405,392.99402,340.05597
1406,390.1301,334.17398
1407,386.79092,327.95667
1408,382.98602,321.41956
1409,378.72266,314.57883
1410,374.01248,307.45175
1411,368.8673,300.05612
1412,363.30005,292.41046
1413,357.32642,284.53384
1414,350.95776,276.44577
1415,344.21173,268.1667
1416,337.1052,259.71722
1417,329.65594,251.11858
1418,321.88498,242.39221
1419,313.807,233.55968
1420,305.44458,224.64331
1421,296.81854,215.66539
1422,287.95044,206.64838
1423,278.86536,197.61482
1424,269.58032,188.58699
1425,260.12137,179.58772
1426,250.51215,170.63956
1427,240.77664,161.76483
1428,230.94223,152.98575
1429,221.02747,144.32393
1430,211.06015,135.80132
1431,201.06517,127.439224
1432,191.06754,119.25856
1433,181.09528,111.279785
1434,171.16722,103.522514
1435,161.31123,96.00644
1436,151.55197,88.75035
1437,141.91382,81.77239
1438,132.42374,75.09001
1439,123.099655,68.719604
1440,113.96781,62.67738
1441,105.051025,56.978443
1442,96.371605,51.637043
1443,87.95374,46.666534
1444,79.81337,42.079067
1445,71.97345,37.886368
1446,64.45355,34.098915
1447,57.272507,30.72618
1448,50.45027,27.776588
1449,43.999725,25.257292
1450,37.939148,23.174799
1451,32.283707,21.534317
1452,27.0475,20.339941
1453,22.245056,19.594658
1454,17.885406,19.300169
1455,13.981018,19.457367
1456,10.541641,20.065851
1457,7.5758514,21.124096
1458,5.0917816,22.629456
1459,3.0941162,24.578087
1460,1.5886536,26.965195
1461,0.57917786,29.784811
1462,0.06820679,33.02988
1463,0.05697632,36.69229
1464,0.54545593,40.762882
1465,1.5325317,45.231483
1466,3.015747,50.086926
1467,4.9913635,55.31706
1468,7.453644,60.908802
1469,10.397919,66.84827
1470,13.816162,73.12053
1471,17.69983,79.70991
1472,22.0392,86.59992
1473,26.821915,93.77334
1474,32.038925,101.21239
1475,37.675797,108.89832
1476,43.71846,116.81194
1477,50.15178,124.93344
1478,56.95755,133.24252
1479,64.122925,141.71863
1480,71.627975,150.34038
1481,79.45391,159.08621
1482,87.58119,167.93425
1483,95.98689,176.86237
1484,104.65512,185.84853
1485,113.56169,194.87001
1486,122.68434,203.90427
1487,132.00026,212.92871
1488,141.48325,221.92076
1489,151.11539,230.85826
1490,160.86972,239.71858
1491,170.7219,248.47957
1492,180.64723,257.11932
1493,190.6179,265.61624
1494,200.61507,273.9494
1495,210.6107,282.0977
1496,220.5798,290.0407
1497,230.49747,297.7586
1498,240.33589,305.2321
1499,250.0765,312.44278
1500,259.69196,319.37238
1501,269.15814,326.00354
1502,278.4515,332.3197
1503,287.546,338.30505
1504,296.42444,343.94495
1505,305.06183,349.225
1506,313.43658,354.13202
1507,321.52783,358.65375
1508,329.3129,362.77887
1509,336.77716,366.4973
1510,343.89948,369.7996
1511,350.6621,372.6774
1512,357.0481,375.12354
1513,363.03973,377.13193
1514,368.62573,378.69772
1515,373.79016,379.81683
1516,378.52017,380.48645
1517,382.80392,380.70493
1518,386.62958,380.4717
1519,389.99,379.7875
1520,392.87543,378.6539
1521,395.27872,377.07373
1522,397.19385,375.05096
1523,398.61572,372.59064
1524,399.54156,369.69897
1525,399.96863,366.38315
1526,399.89578,362.65143
1527,399.32324,358.51318
1528,398.25287,353.97876
1529,396.68665,349.05942
1530,394.62872,343.76752
1531,392.0843,338.1163
1532,389.0597,332.11987
1533,385.5636,325.7932
1534,381.60266,319.15207
1535,377.18774,312.2131
1536,372.32993,304.9937
1537,367.04132,297.5119
1538,361.3369,289.7864
1539,355.22754,281.83636
1540,348.7301,273.6818
1541,341.8609,265.3431
1542,334.6371,256.84116
1543,327.07904,248.19717
1544,319.2011,239.43253
1545,311.02518,230.56937
1546,302.5717,221.62984
1547,293.86182,212.6363
1548,284.92004,203.61125
1549,275.76334,194.57695
1550,266.4172,185.55624
1551,256.90506,176.5717
1552,247.25066,167.64578
1553,237.48114,158.8008
1554,227.61496,150.05855
1555,217.67975,141.44118
1556,207.70033,132.97023
1557,197.70168,124.666885
1558,187.71182,116.55191
1559,177.74962,108.64525
1560,167.84303,100.96699
1561,158.01685,93.53632
1562,148.29561,86.371826
1563,138.70651,79.49141
1564,129.2677,72.91196
1565,120.0057,66.65021
1566,110.94367,60.721825
1567,102.104256,55.14162
1568,93.51215,49.92355
1569,85.18357,45.08037
1570,77.14202,40.624462
1571,69.40758,36.566956
1572,61.999588,32.918
1573,54.93869,29.68671
1574,48.23819,26.880936
1575,41.917053,24.50791
1576,35.99109,22.57356
1577,30.475128,21.082724
1578,25.38443,20.039124
1579,20.728607,19.445202
1580,16.52092,19.302603
1581,12.771896,19.61168
1582,9.4908905,20.371656
1583,6.68692,21.580631
1584,4.3652344,23.235489
1585,2.5326233,25.332184
1586,1.1936188,27.86547
1587,0.35159302,30.82901
1588,0.008682251,34.21539
1589,0.16551208,38.016132
1590,0.82188416,42.221756
1591,1.976181,46.821743
1592,3.625473,51.80459
1593,5.7649384,57.15782
1594,8.390518,62.868145
1595,11.495087,68.92122
1596,15.070892,75.3019
1597,19.108963,81.99424
1598,23.597794,88.9815
1599,28.528885,96.24636
1600,33.88861,103.77052
1601,39.663605,111.53518
1602,45.839386,119.52091
1603,52.398483,127.70775
1604,59.32849,136.07545
1605,66.61014,144.6029
1606,74.22525,153.26877
1607,82.15476,162.05138
1608,90.376305,170.92879
1609,98.87435,179.87907
1610,107.6252,188.87961
1611,116.606964,197.90788
1612,125.79718,206.94133
1613,135.17001,215.95735
1614,144.70773,224.93373
1615,154.38368,233.84773
1616,164.17365,242.67708
1617,174.05318,251.39969
1618,183.99454,259.99374
1619,193.97891,268.4381
1620,203.97836,276.71136
1621,213.96785,284.79282
1622,223.92242,292.66226
1623,233.8142,300.30002
1624,243.62447,307.68735
1625,253.32568,314.80545
1626,262.8936,321.63654
1627,272.3043,328.1635
1628,281.53146,334.3701
1629,290.55765,340.24106
1630,299.35748,345.76144
1631,307.90894,350.91742
1632,316.1906,355.69614
1633,324.17947,360.08566
1634,331.8604,364.07526
1635,339.2117,367.6547
1636,346.215,370.81503
1637,352.85278,373.5484
1638,359.10663,375.84793
1639,364.96472,377.70807
1640,370.4104,379.12402
1641,375.4301,380.0922
1642,380.0113,380.61023
1643,384.1413,380.6768
1644,387.81232,380.29187
1645,391.01385,379.4563
1646,393.73785,378.17215
1647,395.9776,376.44266
1648,397.72696,374.27213
1649,398.98267,371.66605
1650,399.74097,368.6309
1651,399.99994,365.17422
1652,399.75894,361.3047
1653,399.01892,357.032
1654,397.78122,352.36682
1655,396.04913,347.32077
1656,393.82697,341.9065
1657,391.12024,336.13757
1658,387.93683,330.02838
1659,384.2827,323.59415
1660,380.1679,316.85095
1661,375.60275,309.81573
1662,370.59863,302.50607
1663,365.16974,294.94022
1664,359.3264,287.13696
1665,353.08475,279.1159
1666,346.46045,270.89716
1667,339.46997,262.50122
1668,332.1332,253.94913
1669,324.46393,245.26202
1670,316.48352,236.4618
1671,308.2119,227.57051
1672,299.6698,218.61035
1673,290.8813,209.60374
1674,281.8629,200.5729
1675,272.6399,191.54068
1676,263.2353,182.52966
1677,253.67264,173.56238
1678,243.97878,164.66124
1679,234.17203,155.84819
1680,224.27988,147.14554
1681,214.32703,138.57506
1682,204.33835,130.15817
1683,194.34189,121.91593
1684,184.35652,113.86861
1685,174.41025,106.03661
1686,164.52795,98.439545
1687,154.73433,91.09639
1688,145.0568,84.025505
1689,135.51364,77.244255
1690,126.131676,70.76988
1691,116.93437,64.618576
1692,107.94472,58.805714
1693,99.18781,53.345825
1694,90.68021,48.252274
1695,82.44587,43.53806
1696,74.50541,39.21497
1697,66.87865,35.293808
1698,59.586838,31.784382
1699,52.643753,28.695219
1700,46.06903,26.034271
1701,39.87909,23.808187
1702,34.089417,22.022532
1703,28.71608,20.681767
1704,23.769196,19.789064
1705,19.262848,19.346828
1706,15.208313,19.35616
1707,11.615723,19.81703
1708,8.494919,20.728289
1709,5.851822,22.087553
1710,3.6940308,23.891523
1711,2.0269928,26.135689
1712,0.8548279,28.814432
1713,0.18061829,31.921055
1714,0.005630493,35.44777
1715,0.33058167,39.385784
1716,1.1546631,43.725254
1717,2.4758148,48.45532
1718,4.2901154,53.56415
1719,6.594116,59.039043
1720,9.381607,64.86626
1721,12.645584,71.03122
1722,16.377914,77.51852
1723,20.567902,84.31191
1724,25.207657,91.39458
1725,30.284348,98.74868
1726,35.785294,106.355835
1727,41.696747,114.19701
1728,48.001923,122.252594
1729,54.68895,130.50267
1730,61.739197,138.92642
1731,69.135086,147.50279
1732,76.85809,156.21031
1733,84.886444,165.02724
1734,93.20495,173.93178
1735,101.79043,182.90143
1736,110.621414,191.91376
1737,119.67581,200.94626
1738,128.92816,209.97632
1739,138.36096,218.98167
1740,147.94786,227.93954
1741,157.66487,236.82751
1742,167.4877,245.62337
1743,177.38878,254.30511
1744,187.3494,262.85138
1745,197.34163,271.24048
1746,207.34052,279.45148
1747,217.32104,287.46384
1748,227.25526,295.25748
1749,237.12439,302.8133
1750,246.9007,310.1121
1751,256.55978,317.1356
1752,266.07745,323.86624
1753,275.42715,330.2872
1754,284.59116,336.38275
1755,293.5437,342.1374
1756,302.26242,347.53668
1757,310.7255,352.56717
1758,318.90933,357.21628
1759,326.79846,361.47263
1760,334.3706,365.32532
1761,341.60687,368.76474
1762,348.48914,371.7823
1763,354.9983,374.37042
1764,361.12207,376.5229
1765,366.84302,378.2341
1766,372.1469,379.4998
1767,377.02045,380.31677
1768,381.45026,380.683
1769,385.42786,380.59778
1770,388.94193,380.06113
1771,391.98367,379.07437
1772,394.54553,377.64
1773,396.62048,375.76163
1774,398.20465,373.444
1775,399.29333,370.69284
1776,399.88385,367.51505
1777,399.97467,363.91852
1778,399.5658,359.9123
1779,398.65802,355.50635
1780,397.25366,350.7117
1781,395.35617,345.54037
1782,392.97034,340.0053
1783,390.1031,334.12033
1784,386.75983,327.90002
1785,382.9497,321.36005
1786,378.68222,314.51675
1787,373.96808,307.38727
1788,368.8207,299.98938
1789,363.24982,292.34146
1790,357.2708,284.46277
1791,350.89868,276.373
1792,344.14932,268.09235
1793,337.04187,259.6416
1794,329.5897,251.0416
1795,321.8136,242.31404
1796,313.73297,233.48076
1797,305.36804,224.56386
1798,296.7424,215.58562
1799,287.8723,206.5682
1800,278.7826,197.53442
1801,269.4959,188.50685
1802,260.0355,179.50807
1803,250.42798,170.56058
1804,240.69148,161.68642
1805,230.85327,152.90808
1806,220.93793,144.24751
1807,210.97025,135.72636
1808,200.9782,127.36594
1809,190.98064,119.1868
1810,181.00565,111.2097
1811,171.07812,103.4546
1812,161.2229,95.94087
1813,151.46758,88.68732
1814,141.83058,81.71173
1815,132.33899,75.03186
1816,123.01655,68.6644
1817,113.886536,62.625275
1818,104.97448,56.92958
1819,96.29722,51.59126
1820,87.87918,46.62393
1821,79.74142,42.040016
1822,71.9043,37.850975
1823,64.38962,34.067276
1824,57.21158,30.698128
1825,50.390488,27.752188
1826,43.94339,25.236822
1827,37.886414,23.158316
1828,32.236343,21.521862
1829,27.00383,20.331364
1830,22.203796,19.58998
1831,17.84822,19.299557
1832,13.947983,19.460815
1833,10.513794,20.073353
1834,7.55217,21.135525
1835,5.0716095,22.644787
1836,3.078354,24.597364
1837,1.5773468,26.988367
1838,0.57258606,29.811815
1839,0.065963745,33.06062
1840,0.059143066,36.726692
1841,0.552124,40.800865
1842,1.5436707,45.272945
1843,3.0308075,50.131756
1844,5.010681,55.365196
1845,7.478012,60.960144
1846,10.42659,66.9026
1847,13.84906,73.17772
1848,17.735626,79.7698
1849,22.078903,86.66249
1850,26.866974,93.83844
1851,32.087814,101.27972
1852,37.728424,108.96771
1853,43.77275,116.883194
1854,50.209396,125.006584
1855,57.020493,133.31738
1856,64.18901,141.79482
1857,71.69702,150.4177
1858,79.52334,159.16443
1859,87.653145,168.01344
1860,96.063805,176.94237
1861,104.734276,185.92888
1862,113.6429,194.9505
1863,122.76457,203.98468
1864,132.08208,213.00914
1865,141.56937,222.00104
1866,151.2027,230.9379
1867,160.95804,239.79736
1868,170.80794,248.55728
1869,180.73381,257.1961
1870,190.70784,265.69193
1871,200.70511,274.0235
1872,210.7006,282.16998
1873,220.66632,290.11102
1874,230.58342,297.82712
1875,240.42407,305.29865
1876,250.16367,312.50693
1877,259.77786,319.434
1878,269.23978,326.06247
1879,278.5315,332.3761
1880,287.62692,338.35883
1881,296.5033,343.9957
1882,305.13843,349.27264
1883,313.50824,354.17645
1884,321.5969,358.69513
1885,329.38156,362.81714
1886,336.84283,366.53223
1887,343.962,369.83105
1888,350.7193,372.70538
1889,357.10196,375.1483
1890,363.0919,377.15344
1891,368.67413,378.71585
1892,373.83472,379.83163
1893,378.5594,380.49796
1894,382.83917,380.71338
1895,386.66193,380.4772
1896,390.01807,379.79
1897,392.89923,378.65356
1898,395.2975,377.07074
1899,397.20837,375.04553
1900,398.62625,372.583
1901,399.54764,369.68933
1902,399.97018,366.37173
1903,399.89294,362.63858
1904,399.3161,358.49924
1905,398.24097,353.96405
1906,396.6703,349.0444
1907,394.60797,343.75266
1908,392.06006,338.10208
1909,389.0313,332.10678
1910,385.53,325.78183
1911,381.56494,319.14316
1912,377.146,312.20743
1913,372.28577,304.99203
1914,366.99344,297.51495
1915,361.2837,289.79514
1916,355.17075,281.852
1917,348.66992,273.70544
1918,341.7996,265.37607
1919,334.57275,256.88458
1920,327.00952,248.2526
1921,319.12878,239.50182
1922,310.95026,230.65439
1923,302.497,221.73262
1924,293.785,212.7588
1925,284.83853,203.7559
1926,275.68,194.74672
1927,266.33228,185.75415
1928,256.82166,176.80103
1929,247.16612,167.90985
1930,237.39268,159.1036
1931,227.52577,150.40482
1932,217.59006,141.83583
1933,207.61342,133.4187
1934,197.6147,125.17485
1935,187.62195,117.12598
1936,177.66014,109.29309
1937,167.75418,101.696754
1938,157.93181,94.35704
1939,148.21158,87.293175
1940,138.62082,80.52447
1941,129.18349,74.06932
1942,119.92319,67.945526
1943,110.86579,62.170235
1944,102.02842,56.75962
1945,93.43594,51.729755
1946,85.10986,47.095737
1947,77.070984,42.87195
1948,69.341705,39.072056
1949,61.936646,35.708763
1950,54.87671,32.79455
1951,48.17955,30.340979
1952,41.861908,28.358915
1953,35.94133,26.858583
1954,30.429,25.84939
1955,25.340546,25.340546
