no,raw,smooth
0,249.30045,311.8754
1,258.9239,318.82816
2,268.40585,325.4842
3,277.71674,331.82623
4,286.8277,337.8384
5,295.72174,343.5063
6,304.37665,348.81567
7,312.77588,353.75336
8,320.89297,358.30643
9,328.703,362.4635
10,336.19153,366.21466
11,343.33978,369.5506
12,350.134,372.46292
13,356.55267,374.9439
14,362.5762,376.9874
15,368.19357,378.58862
16,373.39075,379.74362
17,378.15753,380.4495
18,382.4787,380.70416
19,386.3412,380.50702
20,389.73816,379.85876
21,392.66113,378.76108
22,395.1041,377.21664
23,397.05905,375.22916
24,398.5204,372.80362
25,399.48575,369.9462
26,399.95276,366.66403
27,399.92004,362.9653
28,399.38727,358.85922
29,398.35657,354.3561
30,396.83026,349.46716
31,394.81226,344.20462
32,392.3059,338.58154
33,389.31854,332.61218
34,385.85986,326.3115
35,381.93683,319.695
36,377.55933,312.77924
37,372.73514,305.58148
38,367.47888,298.12
39,361.8073,290.41345
40,355.73148,282.4808
41,349.2666,274.34186
42,342.42453,266.0169
43,335.2262,257.52716
44,327.69434,248.89394
45,319.84348,240.13834
46,311.69318,231.28221
47,303.25867,222.34767
48,294.56583,213.35756
49,285.64197,204.33441
50,276.50418,195.30025
51,267.17526,186.27759
52,257.67267,177.28896
53,248.0258,168.35742
54,238.26482,159.50539
55,228.40823,150.75435
56,218.48067,142.12614
57,208.50085,133.64232
58,198.49977,125.32471
59,188.50853,117.194145
60,178.54599,109.270325
61,168.63705,101.57303
62,158.8005,94.12147
63,149.067,86.93491
64,139.46672,80.03135
65,130.01767,73.42742
66,120.74344,67.13962
67,111.66174,61.18364
68,102.80101,55.574963
69,94.18858,50.327625
70,85.840485,45.454185
71,77.77761,40.96682
72,70.01543,36.876736
73,62.578384,33.19466
74,55.489273,29.929804
75,48.761215,27.089863
76,42.410965,24.681936
77,36.450928,22.712046
78,30.899948,21.185505
79,25.774963,20.106123
80,21.08522,19.476254
81,16.842468,19.29748
82,13.055115,19.57026
83,9.735352,20.294165
84,6.893112,21.467367
85,4.5332947,23.08673
86,2.6618042,25.148222
87,1.2826233,27.646713
88,0.40049744,30.576057
89,0.017700195,33.928898
90,0.13452148,37.696808
91,0.7506714,41.8704
92,1.8654175,46.439262
93,3.475769,51.39191
94,5.576248,56.715927
95,8.162445,62.398117
96,11.22789,68.4243
97,14.767273,74.779465
98,18.769958,81.44749
99,23.223083,88.41166
100,28.117874,95.65483
101,33.442062,103.158936
102,39.185974,110.90526
103,45.332153,118.87408
104,51.861084,127.0454
105,58.7601,135.39922
106,66.01199,143.91469
107,73.60335,152.57056
108,81.51084,161.3447
109,89.70964,170.21513
110,98.18395,179.16019
111,106.91265,188.15756
112,115.879425,197.18478
113,125.05662,206.21872
114,134.4155,215.23674
115,143.93823,224.21689
116,153.60103,233.13673
117,163.38573,241.97403
118,173.26201,250.70607
119,183.1991,259.31097
120,193.17816,267.76785
121,203.17426,276.0556
122,213.16852,284.15353
123,223.12985,292.04074
124,233.0273,299.6975
125,242.84222,307.10532
126,252.55014,314.2457
127,262.13257,321.10077
128,271.55957,327.6528
129,280.802,333.8854
130,289.8426,339.78357
131,298.6587,345.33258
132,307.2335,350.5186
133,315.54007,355.32803
134,323.55286,359.7489
135,331.25696,363.7707
136,338.63315,367.38333
137,345.66718,370.57782
138,352.33685,373.34567
139,358.62177,375.68002
140,364.51044,377.57538
141,369.98807,379.02704
142,375.044,380.03137
143,379.66208,380.58554
144,383.82837,380.68814
145,387.5354,380.33923
146,390.77393,379.53967
147,393.5374,378.29144
148,395.81677,376.59747
149,397.6054,374.462
150,398.90036,371.89053
151,399.69843,368.88943
152,399.9976,365.46622
153,399.7965,361.6294
154,399.09625,357.3886
155,397.89862,352.75443
156,396.2066,347.73843
157,394.0229,342.3531
158,391.35388,336.612
159,388.2083,330.5296
160,384.59253,324.12088
161,380.51562,317.40182
162,375.9848,310.38916
163,371.01382,303.10077
164,365.61847,295.55487
165,359.8094,287.77002
166,353.60104,279.76566
167,347.00482,271.56174
168,340.04092,263.1792
169,332.73126,254.639
170,325.09006,245.9621
171,317.13632,237.1701
172,308.88483,228.28497
173,300.36096,219.32944
174,291.5915,210.32593
175,282.59323,201.29643
176,273.3886,192.26346
177,263.99487,183.24956
178,254.44104,174.27786
179,244.757,165.37085
180,234.96115,156.55017
181,225.07796,147.83784
182,215.12602,139.25562
183,205.13625,130.82558
184,195.13972,122.56885
185,185.15536,114.50542
186,175.20807,106.65542
187,165.31671,99.03846
188,155.5121,91.67421
189,145.82465,84.581116
190,136.27254,77.77628
191,126.87963,71.2767
192,117.66384,65.0986
193,108.654,59.258026
194,99.877914,53.769585
195,91.351974,48.646435
196,83.09747,43.901375
197,75.13023,39.546253
198,67.47534,35.59248
199,60.15631,32.04994
200,53.18663,28.92701
201,46.583725,26.231497
202,40.360428,23.970139
203,34.536438,22.148996
204,29.129486,20.772615
205,24.149414,19.844074
206,19.608673,19.365704
207,15.516235,19.338707
208,11.885254,19.763426
209,8.726578,20.638779
210,6.045761,21.962357
211,3.8494873,23.730867
212,2.1423492,25.93991
213,0.93013,28.584085
214,0.21611023,31.656748
215,0.0012207031,35.150154
216,0.28596497,39.05559
217,1.0702972,43.36333
218,2.3522034,48.06256
219,4.1272583,53.14149
220,6.3916473,58.587517
221,9.139709,64.38706
222,12.36673,70.52566
223,16.063065,76.98776
224,20.216812,83.75717
225,24.819702,90.817215
226,29.86023,98.150276
227,35.329285,105.73806
228,41.210236,113.561264
229,47.484406,121.600266
230,54.139618,129.83536
231,61.15921,138.246
232,68.53027,146.8112
233,76.23018,155.5091
234,84.23469,164.31787
235,92.52841,173.21602
236,101.09064,182.18132
237,109.90541,191.19139
238,118.94553,200.22318
239,128.18271,209.25404
240,137.59929,218.26198
241,147.17177,227.2245
242,156.88219,236.11926
243,166.70047,244.92339
244,176.59596,253.61482
245,186.54993,262.1725
246,196.5375,270.575
247,206.53983,278.8014
248,216.52579,286.83044
249,226.46437,294.64206
250,236.33684,302.21738
251,246.11853,309.5374
252,255.79086,316.58398
253,265.32364,323.3388
254,274.68735,329.78497
255,283.8645,335.90692
256,292.83212,341.68942
257,301.57306,347.11804
258,310.05997,352.1786
259,318.26663,356.85843
260,326.17786,361.14642
261,333.77386,365.0318
262,341.03998,368.5049
263,347.9533,371.55658
264,354.49268,374.1792
265,360.64612,376.36658
266,366.3982,378.1133
267,371.73767,379.41498
268,376.6476,380.26804
269,381.1131,380.67032
270,385.12616,380.62115
271,388.6767,380.12064
272,391.75757,379.16995
273,394.35883,377.77133
274,396.4728,375.92828
275,398.09595,373.64557
276,399.22418,370.92886
277,399.85492,367.78494
278,399.98578,364.22162
279,399.61676,360.24783
280,398.74908,355.87354
281,397.3849,351.1096
282,395.52625,345.9679
283,393.17856,340.46143
284,390.34955,334.60397
285,387.04498,328.41003
286,383.27313,321.89505
287,379.0407,315.0753
288,374.36044,307.96802
289,369.2473,300.5911
290,363.7113,292.96262
291,357.76636,285.10165
292,351.42328,277.0278
293,344.70142,268.76166
294,337.62207,260.3239
295,330.1989,251.73524
296,322.45044,243.01706
297,314.39108,234.19113
298,306.0456,225.28004
299,297.44016,216.3061
300,288.5913,207.29121
301,279.52115,198.25787
302,270.24658,189.22862
303,260.79633,180.22664
304,251.19992,171.27444
305,241.47557,162.39384
306,231.64761,153.607
307,221.73453,144.93582
308,211.76707,136.40263
309,201.77629,128.02881
310,191.78107,119.83465
311,181.80638,111.84061
312,171.87111,104.066635
313,162.0062,96.53281
314,152.24223,89.25798
315,142.5976,82.259735
316,133.09634,75.555534
317,123.75661,69.16212
318,114.607574,63.09606
319,105.67751,57.372562
320,96.9831,52.005344
321,88.54605,47.007816
322,80.38255,42.392456
323,72.51824,38.171333
324,64.97731,34.35501
325,57.773712,30.952534
326,50.925415,27.972404
327,44.445724,25.422071
328,38.355118,23.308332
329,32.67218,21.636467
330,27.407257,20.410278
331,22.573532,19.632835
332,18.180511,19.306093
333,14.242279,19.43116
334,10.77066,20.007702
335,7.7717896,21.03404
336,5.2531586,22.507624
337,3.2199554,24.424788
338,1.6789703,26.780882
339,0.6345215,29.569984
340,0.088150024,32.785038
341,0.04119873,36.418026
342,0.49423218,40.459896
343,1.4462891,44.900528
344,2.8939667,49.728775
345,4.8340454,54.932644
346,7.2617035,60.499153
347,10.172806,66.41443
348,13.558716,72.6635
349,17.408493,79.2307
350,21.714432,86.09983
351,26.465744,93.25377
352,31.653915,100.67466
353,37.26317,108.343636
354,43.27568,116.24147
355,49.679733,124.348785
356,56.45932,132.64536
357,63.601974,141.11047
358,71.0858,149.72253
359,78.88722,158.45995
360,86.99123,167.30136
361,95.377556,176.22472
362,104.030594,185.20775
363,112.9237,194.22743
364,122.028984,203.26118
365,131.32906,212.28699
366,140.80069,221.28232
367,150.42613,230.22473
368,160.17557,239.09125
369,170.0186,247.85965
370,179.93652,256.50867
371,189.90457,265.0167
372,199.90393,273.3625
373,209.90355,281.52457
374,219.87231,289.48245
375,229.79143,297.21692
376,239.63612,304.70862
377,249.38771,311.9389
378,259.01575,318.88904
379,268.49045,325.54163
380,277.79407,331.88065
381,286.9033,337.89026
382,295.80078,343.55548
383,304.45865,348.86157
384,312.85022,353.79523
385,320.9598,358.34467
386,328.76724,362.49854
387,336.25745,366.2465
388,343.4068,369.57864
389,350.19348,372.48663
390,356.6049,374.96365
391,362.62506,377.0035
392,368.24228,378.6011
393,373.43866,379.7521
394,378.19843,380.4536
395,382.513,380.7042
396,386.37164,380.5032
397,389.7666,379.85117
398,392.6869,378.74945
399,395.12387,377.20087
400,397.0734,375.20944
401,398.53055,372.78012
402,399.4922,369.91898
403,399.9548,366.63306
404,399.91748,362.93063
405,399.38068,358.82098
406,398.3458,354.31433
407,396.81427,349.42194
408,394.7905,344.15613
409,392.28116,338.53012
410,389.29144,332.5578
411,385.82886,326.2541
412,381.89944,319.63467
413,377.51508,312.71637
414,372.68976,305.51654
415,367.43298,298.05286
416,361.75793,290.34396
417,355.675,282.4091
418,349.20258,274.26843
419,342.36133,265.94244
420,335.16437,257.45145
421,327.62973,248.81667
422,319.77136,240.05966
423,311.61343,231.2028
424,303.18152,222.2683
425,294.49188,213.27795
426,285.56613,204.2542
427,276.421,195.21954
428,267.0847,186.19716
429,257.58643,177.20967
430,247.94432,168.27893
431,238.18243,159.42723
432,228.3191,150.67667
433,218.38495,142.04973
434,208.41089,133.56804
435,198.41583,125.25217
436,188.42473,117.12287
437,178.45648,109.20044
438,168.54211,101.505325
439,158.7124,94.05679
440,148.98584,86.87284
441,139.38672,79.9714
442,129.93332,73.36969
443,120.65518,67.08485
444,111.58097,61.132587
445,102.72766,55.527214
446,94.11737,50.282722
447,85.76658,45.41221
448,77.70152,40.92839
449,69.94702,36.842487
450,62.51741,33.164207
451,55.431274,29.902742
452,48.702316,27.06624
453,42.35179,24.662233
454,36.39911,22.696726
455,30.855148,21.174238
456,25.733765,20.098583
457,21.044998,19.472454
458,16.803879,19.297728
459,13.023132,19.574823
460,9.709503,20.30279
461,6.871277,21.479822
462,4.5142517,23.102993
463,2.6461792,25.16841
464,1.2724609,27.67088
465,0.39520264,30.604036
466,0.016601562,33.960575
467,0.1378479,37.73213
468,0.75901794,41.90927
469,1.8777008,46.48152
470,3.4913483,51.437504
471,5.595932,56.764854
472,8.187912,62.45029
473,11.259674,68.47945
474,14.801239,74.8372
475,18.805466,81.50786
476,23.262375,88.47479
477,28.163925,95.72061
478,33.4953,103.22691
479,39.239532,110.97487
480,45.385376,118.945465
481,51.917496,127.11881
482,58.823868,135.47452
483,66.08339,143.99126
484,73.67313,152.64769
485,81.57847,161.42265
486,89.77966,170.29424
487,98.26147,179.24031
488,106.99775,188.23798
489,115.96112,197.26468
490,125.134445,206.29842
491,134.4948,215.31665
492,144.02467,224.29686
493,153.69455,233.216
494,163.47424,242.05173
495,173.3452,250.78256
496,183.28275,259.38672
497,193.26814,267.84274
498,203.27039,276.1288
499,213.25836,284.2242
500,223.21321,292.1093
501,233.11008,299.76443
502,242.93018,307.17047
503,252.6429,314.3083
504,262.21814,321.16
505,271.63794,327.7091
506,280.87878,333.93924
507,289.92303,339.83484
508,298.7423,345.38058
509,307.3095,350.56262
510,315.60858,355.36853
511,323.61884,359.78632
512,331.3249,363.80493
513,338.70242,367.41385
514,345.72888,370.60403
515,352.39124,373.36795
516,358.67288,375.6987
517,364.56158,377.59048
518,370.0387,379.03815
519,375.08752,380.0381
520,379.6989,380.58817
521,383.8614,380.68698
522,387.56668,380.3343
523,390.8028,379.53073
524,393.5601,378.27826
525,395.83383,376.5803
526,397.61835,374.44104
527,398.90976,371.86578
528,399.70367,368.86093
529,399.99802,365.43396
530,399.79272,361.59354
531,399.0883,357.34918
532,397.88562,352.7115
533,396.18793,347.69214
534,394.00104,342.3037
535,391.32947,336.55957
536,388.17993,330.47406
537,384.55786,324.06232
538,380.4742,317.3406
539,375.94202,310.32578
540,370.97028,303.0351
541,365.5714,295.48676
542,359.75525,287.6996
543,353.53946,279.69342
544,346.9438,271.4883
545,339.981,263.10437
546,332.6685,254.56253
547,325.01978,245.8841
548,317.05838,237.09125
549,308.80927,228.20601
550,300.28836,219.2501
551,291.51688,210.24586
552,282.51123,201.21576
553,273.29916,192.18292
554,263.90955,183.17001
555,254.36028,174.19894
556,244.6752,165.29213
557,234.8725,156.4718
558,224.98257,147.76062
559,215.03624,139.1804
560,205.05234,130.75198
561,195.05582,122.49639
562,185.06557,114.434235
563,175.11267,106.5863
564,165.22804,98.97227
565,155.43027,91.61052
566,145.74385,84.51943
567,136.1872,77.71672
568,126.79015,71.22
569,117.581795,65.04554
570,108.57934,59.20818
571,99.805275,53.722496
572,91.2764,48.602192
573,83.01947,43.860615
574,75.05991,39.509632
575,67.41249,35.5596
576,60.096313,32.02039
577,53.125504,28.900845
578,46.522064,26.209215
579,40.306213,23.952232
580,34.489304,22.135122
581,29.085892,20.762436
582,24.106552,19.837608
583,19.567184,19.363281
584,15.481491,19.340626
585,11.856766,19.769419
586,8.702072,20.648603
587,6.0238037,21.975996
588,3.8307343,23.748463
589,2.1292267,25.961544
590,0.9220581,28.60958
591,0.2122345,31.685972
592,0.0015563965,35.183056
593,0.2911377,39.09211
594,1.0796204,43.40333
595,2.3650513,48.105965
596,4.144226,53.18829
597,6.4142456,58.637634
598,9.168472,64.44023
599,12.397903,70.581535
600,16.096039,77.04639
601,20.253601,83.81865
602,24.86316,90.88143
603,29.910797,98.216805
604,35.3804,105.80636
605,41.261276,113.63147
606,47.538727,121.6726
607,54.201233,129.9097
608,61.228424,138.32175
609,68.598145,146.88766
610,76.29611,155.5865
611,84.30314,164.39655
612,92.60436,173.29582
613,101.17421,182.26154
614,109.9858,191.27126
615,119.02227,200.30298
616,128.26105,209.33418
617,137.68484,218.3423
618,147.2645,227.30424
619,156.97011,236.19756
620,166.78323,245.00061
621,176.67932,253.69142
622,186.63977,262.24832
623,196.63364,270.6493
624,206.62982,278.87326
625,216.60944,286.9003
626,226.54756,294.7104
627,236.42537,302.28406
628,246.21207,309.60168
629,255.87732,316.645
630,265.40295,323.39694
631,274.7652,329.84073
632,283.94623,335.96024
633,292.91727,341.73956
634,301.65063,347.16428
635,310.13004,352.22134
636,318.33432,356.89816
637,326.2477,361.18304
638,333.8453,365.0648
639,341.1038,368.53363
640,348.00977,371.5814
641,354.54596,374.20047
642,360.6997,376.3843
643,366.4515,378.12704
644,371.7838,379.42435
645,376.68695,380.27332
646,381.1487,380.6718
647,385.16022,380.61884
648,388.70856,380.11426
649,391.78314,379.15936
650,394.3786,377.7567
651,396.4885,375.90985
652,398.10834,373.62335
653,399.2326,370.90283
654,399.85834,367.7551
655,399.98474,364.18808
656,399.61157,360.2107
657,398.739,355.83282
658,397.36935,351.0655
659,395.5073,345.92062
660,393.1568,340.411
661,390.3238,334.55038
662,387.0131,328.35333
663,383.23462,321.8356
664,379.00055,315.01352
665,374.3193,307.90387
666,369.20258,300.52438
667,363.6596,292.8935
668,357.70728,285.0306
669,351.36444,276.95544
670,344.6435,268.6878
671,337.56116,260.2483
672,330.13052,251.65799
673,322.37442,242.93883
674,314.3172,234.11266
675,305.97443,225.20105
676,297.36688,216.22624
677,288.5106,207.21062
678,279.43292,198.17729
679,270.1623,189.14888
680,260.71637,180.14738
681,251.11877,171.19528
682,241.38748,162.3149
683,231.55267,153.52905
684,221.64502,144.85976
685,211.68329,136.32806
686,201.69237,127.95525
687,191.69112,119.762245
688,181.71065,111.77015
689,171.78197,103.998985
690,161.92378,96.467545
691,152.16074,89.19463
692,142.51135,82.1984
693,133.00575,75.49696
694,123.67337,69.1071
695,114.531685,63.04418
696,105.60351,57.32335
697,96.90594,51.958885
698,88.46624,46.964767
699,80.3104,42.353493
700,72.45358,38.13606
701,64.915405,34.323
702,57.71042,30.923845
703,50.861343,27.94756
704,44.38916,25.401585
705,38.305695,23.291855
706,32.626205,21.62365
707,27.361786,20.401144
708,22.52919,19.627739
709,18.14302,19.305357
710,14.211197,19.434505
711,10.743515,20.014874
712,7.7469635,21.045025
713,5.2312927,22.522587
714,3.203888,24.443844
715,1.6681366,26.803839
716,0.62786865,29.596697
717,0.085494995,32.815456
718,0.043182373,36.45212
719,0.5005646,40.497562
720,1.4563751,44.941673
721,2.9081879,49.773373
722,4.8537445,54.980618
723,7.2874146,60.55027
724,10.201187,66.46837
725,13.589111,72.720276
726,17.442749,79.290405
727,21.755249,86.16237
728,26.513565,93.31872
729,31.702545,100.741516
730,37.311966,108.41251
731,43.327835,116.312584
732,49.739136,124.422
733,56.526276,132.7201
734,63.66783,141.18607
735,71.14998,149.7992
736,78.954025,158.538
737,87.06552,167.38066
738,95.459496,176.30457
739,104.109604,185.28737
740,112.99927,194.30713
741,122.106285,203.34134
742,131.41364,212.36746
743,140.89253,221.36235
744,150.51337,230.30345
745,160.25783,239.16904
746,170.10158,247.93695
747,180.02611,256.58533
748,190.00058,265.09192
749,199.99397,273.43542
750,209.98738,281.59558
751,219.95583,289.55203
752,229.88046,297.28497
753,239.73035,304.77438
754,249.47495,312.00153
755,259.09595,318.9489
756,268.5693,325.59924
757,277.87698,331.9359
758,286.98987,337.94247
759,295.87982,343.6039
760,304.5302,348.9066
761,312.9195,353.83728
762,321.0315,358.3837
763,328.8408,362.53394
764,336.32336,366.27765
765,343.46533,369.60593
766,350.2489,372.51047
767,356.6609,374.98398
768,362.68103,377.0199
769,368.29095,378.61313
770,373.4804,379.76004
771,378.2365,380.45776
772,382.5498,380.7046
773,386.40652,380.49957
774,389.795,379.84326
775,392.70938,378.73752
776,395.14227,377.1851
777,397.0887,375.18985
778,398.54218,372.75665
779,399.49857,369.8916
780,399.95657,366.60196
781,399.91504,362.89587
782,399.3736,358.78262
783,398.33344,354.27255
784,396.79828,349.3769
785,394.77142,344.10785
786,392.25806,338.47858
787,389.26236,332.50308
788,385.79327,326.1965
789,381.862,319.57468
790,377.47638,312.6539
791,372.6474,305.4514
792,367.38373,297.98517
793,361.7014,290.27423
794,355.6184,282.3379
795,349.14667,274.19562
796,342.30234,265.86774
797,335.09796,257.375
798,327.5557,248.7391
799,319.69928,239.9817
800,311.54376,231.1242
801,303.10962,222.1887
802,294.4125,213.19751
803,285.47922,204.17363
804,276.33777,195.13968
805,267.0056,186.11768
806,257.50604,177.13013
807,247.8569,168.19946
808,238.08804,159.34863
809,228.22997,150.59981
810,218.30136,141.97424
811,208.32704,133.49345
812,198.3258,125.17861
813,188.32875,117.05115
814,178.36697,109.13142
815,168.45923,101.438576
816,158.63028,93.99184
817,148.89879,86.809784
818,139.2951,79.91101
819,129.849,73.31278
820,120.57814,67.03098
821,111.5057,61.0813
822,102.649,55.47859
823,94.03581,50.237434
824,85.69268,45.37095
825,77.635124,40.89076
826,69.88327,36.808052
827,62.452026,33.13303
828,55.364853,29.875366
829,48.643448,27.043201
830,42.300156,24.643173
831,36.350845,22.681288
832,30.807129,21.162449
833,25.686615,20.090818
834,21.004822,19.469065
835,16.770203,19.298424
836,12.993347,19.579336
837,9.681808,20.311113
838,6.8463135,21.492147
839,4.4952545,23.119463
840,2.6325989,25.18882
841,1.2630157,27.695066
842,0.38955688,30.631962
843,0.015396118,33.99223
844,0.1412201,37.767433
845,0.76634216,41.948124
846,1.8891907,46.52388
847,3.508133,51.48329
848,5.6185303,56.813866
849,8.21344,62.50224
850,11.28746,68.53433
851,14.8329315,74.895096
852,18.843597,81.56867
853,23.307388,88.538124
854,28.210007,95.78598
855,33.54181,103.294426
856,39.289474,111.04472
857,45.442505,119.01753
858,51.982132,127.192535
859,58.887665,135.54926
860,66.14574,144.06721
861,73.738205,152.72516
862,81.65105,161.50148
863,89.8599,170.37376
864,98.339,179.31975
865,107.07206,188.31763
866,116.03729,197.34492
867,125.21794,206.37912
868,134.58565,215.39703
869,144.11111,224.37607
870,153.7762,233.2944
871,163.55676,242.12976
872,173.43443,250.86009
873,183.37854,259.46295
874,193.35812,267.91678
875,203.35431,276.20108
876,213.34212,284.29517
877,223.30264,292.17886
878,233.20488,299.8318
879,243.01811,307.23477
880,252.72386,314.36996
881,262.2979,321.2195
882,271.722,327.76636
883,280.9667,333.9935
884,290.00342,339.88538
885,298.8153,345.42783
886,307.3803,350.607
887,315.68204,355.40997
888,323.6944,359.8242
889,331.39276,363.83862
890,338.76288,367.44373
891,345.78632,370.6305
892,352.44952,373.39096
893,358.73138,375.71777
894,364.61273,377.60516
895,370.0829,379.04877
896,375.12808,380.04498
897,379.73843,380.5913
898,383.89923,380.68607
899,387.5979,380.32904
900,390.8279,379.5214
901,393.58118,378.2651
902,395.85208,376.56332
903,397.63312,374.42014
904,398.91913,371.84094
905,399.7082,368.83228
906,399.99835,365.4016
907,399.7886,361.55753
908,399.0791,357.30963
909,397.87253,352.6686
910,396.17163,347.64597
911,393.98062,342.25424
912,391.30322,336.50687
913,388.14734,330.4184
914,384.52316,324.0041
915,380.43802,317.2798
916,375.9021,310.26224
917,370.92352,302.96893
918,365.51746,295.41843
919,359.70105,287.62964
920,353.48566,279.6217
921,346.88684,271.4146
922,339.9167,263.0288
923,332.59653,254.48573
924,324.9495,245.80675
925,316.9903,237.01312
926,308.73886,228.12677
927,300.21045,219.16988
928,291.4314,210.16537
929,282.4292,201.13582
930,273.22107,192.10323
931,263.83002,183.09013
932,254.27362,174.11905
933,244.58148,165.21298
934,234.78383,156.39427
935,224.89929,147.68433
936,214.95255,139.10489
937,204.96233,130.67737
938,194.95972,122.42348
939,184.97578,114.3639
940,175.02939,106.518135
941,165.14539,98.90578
942,155.3425,91.54582
943,145.65134,84.457306
944,136.10187,77.657974
945,126.71205,71.164215
946,117.50533,64.99223
947,108.49927,59.157448
948,99.72208,53.675026
949,91.20084,48.558685
950,82.9514,43.820667
951,74.994385,39.47281
952,67.34511,35.525967
953,60.02762,31.990507
954,53.064407,28.875273
955,46.468277,26.187592
956,40.25569,23.934183
957,34.43878,22.120682
958,29.03598,20.752005
959,24.06372,19.831562
960,19.53099,19.361322
961,15.449112,19.342472
962,11.826248,19.775068
963,8.674042,20.658272
964,6.001892,21.989853
965,3.814392,23.766294
966,2.1170197,25.983173
967,0.9134369,28.634968
968,0.2078247,31.71514
969,0.0019378662,35.215954
970,0.2956848,39.128624
971,1.0883484,43.443398
972,2.3788757,48.149517
973,4.163727,53.235146
974,6.4368896,58.687527
975,9.1936035,64.49316
976,12.427017,70.63755
977,16.13144,77.10539
978,20.295776,83.88028
979,24.906647,90.94522
980,29.954956,98.282845
981,35.428085,105.87483
982,41.316055,113.70225
983,47.600967,121.74516
984,54.26288,129.98341
985,61.28888,138.3968
986,68.66142,146.96436
987,76.366875,155.66467
988,84.38158,164.47554
989,92.68032,173.37488
990,101.24719,182.34094
991,110.06076,191.35136
992,119.10461,200.38367
993,128.3508,209.41467
994,137.7704,218.42177
995,147.34547,227.38304
996,157.0521,236.27612
997,166.87201,245.0788
998,176.77481,253.76845
999,186.7296,262.3233
1000,196.71756,270.7226
1001,206.7137,278.94537
1002,216.69916,286.97113
1003,226.64285,294.77914
1004,236.5139,302.34985
1005,246.29373,309.66495
1006,255.9579,316.7062
1007,265.48804,323.45602
1008,274.85437,329.89694
1009,284.02792,336.0128
1010,292.99158,341.78888
1011,301.7229,347.21082
1012,310.2052,352.265
1013,318.4118,356.93835
1014,326.31754,361.2191
1015,333.90765,365.09705
1016,341.16327,368.56253
1017,348.0703,371.6069
1018,354.607,374.22208
1019,360.7533,376.40155
1020,366.49802,378.14026
1021,371.82678,379.43384
1022,376.72913,380.27908
1023,381.18942,380.67352
1024,385.1942,380.61624
1025,388.73633,380.1076
1026,391.80695,379.14886
1027,394.39978,377.74243
1028,396.5064,375.89163
1029,398.12064,373.6011
1030,399.23993,370.8767
1031,399.86145,367.72525
1032,399.98364,364.15457
1033,399.60556,360.17358
1034,398.72888,355.79227
1035,397.35577,351.02155
1036,395.48956,345.87332
1037,393.13342,340.3604
1038,390.2942,334.49673
1039,386.98114,328.29703
1040,383.201,321.77658
1041,378.9631,314.95166
1042,374.27515,307.8393
1043,369.15128,300.45752
1044,363.60782,292.8249
1045,357.65564,284.96014
1046,351.30957,276.88287
1047,344.5813,268.61325
1048,337.49133,260.17236
1049,330.06213,251.58136
1050,322.308,242.86128
1051,314.24835,234.03387
1052,305.89804,225.12115
1053,297.28287,216.14597
1054,288.42984,207.13075
1055,279.3559,198.09752
1056,270.08368,189.06882
1057,260.63058,180.06717
1058,251.02582,171.11568
1059,241.2994,162.23677
1060,231.4698,153.45203
1061,221.56158,144.78339
1062,211.5934,136.25247
1063,201.59622,127.881256
1064,191.60115,119.690704
1065,181.62706,111.70065
1066,171.69888,103.93105
1067,161.8354,96.40129
1068,152.06738,89.13084
1069,142.42511,82.137886
1070,132.92667,75.43931
1071,123.595795,69.05183
1072,114.45029,62.99139
1073,105.51876,57.273735
1074,96.8288,51.913177
1075,88.396576,46.922554
1076,80.24317,42.31433
1077,72.38425,38.100014
1078,64.84453,34.290653
1079,57.64717,30.895779
1080,50.805435,27.923403
1081,44.33644,25.380955
1082,38.25273,23.274792
1083,32.57361,21.610577
1084,27.316345,20.392464
1085,22.490509,19.623144
1086,18.108109,19.30455
1087,14.177887,19.43749
1088,10.712448,20.02189
1089,7.722168,21.056273
1090,5.2122345,22.53784
1091,3.1889496,24.462908
1092,1.6565399,26.826681
1093,0.6202698,29.623365
1094,0.08287048,32.845932
1095,0.044937134,36.486275
1096,0.50653076,40.535313
1097,1.4672546,44.982956
1098,2.9245605,49.818035
1099,4.873474,55.02842
1100,7.30986,60.601192
1101,10.227661,66.52245
1102,13.621765,72.777435
1103,17.48204,79.35029
1104,21.796097,86.22453
1105,26.555344,93.38325
1106,31.74791,100.80857
1107,37.364365,108.48198
1108,43.38762,116.38394
1109,49.79857,124.49465
1110,56.584778,132.79422
1111,63.729263,141.26193
1112,71.21886,149.87668
1113,79.03057,158.61644
1114,87.13985,167.45932
1115,95.53106,176.3837
1116,104.183266,185.36734
1117,113.080345,194.3878
1118,122.19484,203.42198
1119,131.49821,212.44722
1120,140.97272,221.44156
1121,150.5947,230.38254
1122,160.34607,239.24786
1123,170.19664,248.01474
1124,180.11569,256.6612
1125,190.08441,265.16626
1126,200.07791,273.5087
1127,210.0773,281.6677
1128,220.05148,289.6222
1129,229.96948,297.35226
1130,239.8126,304.83923
1131,249.55627,312.06442
1132,259.18195,319.00977
1133,268.6596,325.65732
1134,277.9599,331.9904
1135,287.06543,337.99377
1136,295.95346,343.6525
1137,304.60696,348.95242
1138,312.99884,353.8797
1139,321.10318,358.42203
1140,328.90497,362.56857
1141,336.38474,366.30896
1142,343.528,369.6339
1143,350.31232,372.53458
1144,356.71686,375.00375
1145,362.72983,377.03564
1146,368.33627,378.62518
1147,373.5252,379.7684
1148,378.28012,380.46213
1149,382.5866,380.7046
1150,386.43692,380.49548
1151,389.82147,379.83533
1152,392.73346,378.72577
1153,395.16333,377.16937
1154,397.104,375.17007
1155,398.55225,372.733
1156,399.50452,369.8642
1157,399.95844,366.57086
1158,399.91223,362.86115
1159,399.36646,358.7444
1160,398.3226,354.23083
1161,396.7833,349.33173
1162,394.75098,344.05933
1163,392.23154,338.42694
1164,389.23322,332.44867
1165,385.7622,326.13928
1166,381.82706,319.5145
1167,377.43484,312.59088
1168,372.59882,305.386
1169,367.3344,297.9179
1170,361.65198,290.205
1171,355.56567,282.26645
1172,349.08667,274.1221
1173,342.23477,265.7927
1174,335.0316,257.29913
1175,327.49103,248.6622
1176,319.63202,239.90346
1177,311.46902,231.04474
1178,303.02722,222.10872
1179,294.33313,213.11778
1180,285.40332,204.09386
1181,276.2602,195.05948
1182,266.92078,186.03717
1183,257.41397,177.05011
1184,247.76947,168.1208
1185,238.00565,159.27095
1186,228.14688,150.52266
1187,218.2117,141.89775
1188,208.23097,133.41843
1189,198.23576,125.10593
1190,188.24496,116.98039
1191,178.28352,109.0621
1192,168.37032,101.370834
1193,158.53622,93.926445
1194,148.81174,86.74758
1195,139.21515,79.85157
1196,129.7704,73.255615
1197,120.495514,66.9762
1198,111.419495,61.029606
1199,102.57036,55.430733
1200,93.96464,50.193
1201,85.623825,45.329483
1202,77.56392,40.852337
1203,69.81026,36.77327
1204,62.386673,33.102497
1205,55.3069,29.848701
1206,48.588593,27.020014
1207,42.244797,24.623505
1208,36.29561,22.665585
1209,30.759125,21.151138
1210,25.645477,20.083584
1211,20.967392,19.465595
1212,16.73413,19.298729
1213,12.95929,19.583685
1214,9.65416,20.319729
1215,6.8245697,21.504793
1216,4.4775696,23.13593
1217,2.6180573,25.20908
1218,1.2522583,27.719193
1219,0.38397217,30.659964
1220,0.0143585205,34.023964
1221,0.14437866,37.80281
1222,0.77423096,41.98708
1223,1.9024048,46.566284
1224,3.5249329,51.528942
1225,5.6383057,56.862724
1226,8.237259,62.554325
1227,11.3173065,68.589554
1228,14.869293,74.95314
1229,18.881775,81.62912
1230,23.346725,88.60105
1231,28.253006,95.85154
1232,33.59175,103.36249
1233,39.346725,111.11479
1234,45.499664,119.08903
1235,52.03859,127.265625
1236,58.94716,135.62419
1237,66.21265,144.14388
1238,73.81278,152.8029
1239,81.72363,161.57959
1240,89.92996,170.45248
1241,98.411285,179.39943
1242,107.1518,188.39812
1243,116.12456,197.42549
1244,125.30145,206.45894
1245,134.66498,215.47644
1246,144.19171,224.4555
1247,153.8638,233.3737
1248,163.6513,242.20815
1249,173.52368,250.93669
1250,183.46219,259.53815
1251,193.44202,267.99106
1252,203.44434,276.2743
1253,213.43803,284.36652
1254,223.39206,292.24747
1255,233.28764,299.89807
1256,243.10007,307.29922
1257,252.81071,314.4325
1258,262.38925,321.27936
1259,271.80603,327.82272
1260,281.04346,334.0468
1261,290.07837,339.9361
1262,298.8936,345.47583
1263,307.4614,350.65167
1264,315.7555,355.4506
1265,323.76035,359.86115
1266,331.45605,363.87234
1267,338.8277,367.47418
1268,345.85214,370.65714
1269,352.5078,373.41327
1270,358.78244,375.73608
1271,364.6604,377.61984
1272,370.13022,379.05978
1273,375.1745,380.05194
1274,379.7779,380.59387
1275,383.9322,380.68454
1276,387.62698,380.3237
1277,390.85486,379.51224
1278,393.60535,378.25195
1279,395.8703,376.54602
1280,397.64594,374.39886
1281,398.92783,371.81586
1282,399.71307,368.8034
1283,399.99872,365.369
1284,399.78442,361.52124
1285,399.07104,357.26978
1286,397.8603,352.62518
1287,396.15405,347.59906
1288,393.95718,342.20404
1289,391.27695,336.4537
1290,388.11884,330.36224
1291,384.4884,323.94485
1292,380.39917,317.2178
1293,375.85632,310.19766
1294,370.87677,302.90225
1295,365.47034,295.34955
1296,359.64685,287.55835
1297,353.42792,279.54852
1298,346.82156,271.3397
1299,339.85233,262.95282
1300,332.5337,254.40843
1301,324.87918,245.72784
1302,316.91727,236.93326
1303,308.65814,228.04616
1304,300.1325,219.08928
1305,291.35672,210.08449
1306,282.34714,201.05424
1307,273.13727,192.02171
1308,263.7389,183.00888
1309,254.18697,174.0389
1310,244.49965,165.13354
1311,234.69516,156.3151
1312,224.80995,147.6062
1313,214.85666,139.028
1314,204.87233,130.6026
1315,194.87581,122.35042
1316,184.886,114.292046
1317,174.94006,106.44827
1318,165.05072,98.83807
1319,155.25475,91.48112
1320,145.57056,84.395164
1321,136.01657,77.59791
1322,126.62829,71.10695
1323,117.417755,64.93791
1324,108.41921,59.106815
1325,99.64947,53.62766
1326,91.1253,48.514126
1327,82.87841,43.779552
1328,74.91936,39.435234
1329,67.277725,35.492554
1330,59.96768,31.960869
1331,53.00334,28.849
1332,46.410583,26.165186
1333,40.19786,23.915699
1334,34.388275,22.10657
1335,28.992432,20.741936
1336,24.020905,19.825216
1337,19.492203,19.35903
1338,15.412094,19.344233
1339,11.795761,19.781137
1340,8.649612,20.668402
1341,5.980011,22.003822
1342,3.7969208,23.784246
1343,2.1031036,26.005062
1344,0.9048767,28.660837
1345,0.20402527,31.744833
1346,0.0023498535,35.249367
1347,0.30059814,39.165703
1348,1.0983887,43.48405
1349,2.392746,48.19357
1350,4.180771,53.28255
1351,6.459564,58.738308
1352,9.220612,64.54706
1353,12.460403,70.69444
1354,16.166885,77.164894
1355,20.332642,83.94245
1356,24.95018,91.01021
1357,30.002365,98.35021
1358,35.482727,105.94442
1359,41.37088,113.7735
1360,47.655334,121.81824
1361,54.324554,130.05856
1362,61.35376,138.47346
1363,68.73395,147.04233
1364,76.43767,155.74326
1365,84.45008,164.555
1366,92.75632,173.45555
1367,101.32549,182.42213
1368,110.146645,191.43288
1369,119.18696,200.46469
1370,128.42917,209.49554
1371,137.85597,218.50293
1372,147.43234,227.4637
1373,157.146,236.35606
1374,166.96082,245.15718
1375,176.85818,253.84567
1376,186.81944,262.39984
1377,196.80759,270.79767
1378,206.80978,279.0188
1379,216.78888,287.04205
1380,226.72603,294.84796
1381,236.60242,302.41708
1382,246.38132,309.72983
1383,256.05017,316.7686
1384,265.57312,323.51508
1385,274.9322,329.9531
1386,284.10962,336.06653
1387,293.0713,341.83954
1388,301.80566,347.25824
1389,310.2803,352.30853
1390,318.47943,356.97833
1391,326.38733,361.256
1392,333.97455,365.1303
1393,341.23135,368.59207
1394,348.1308,371.63217
1395,354.66022,374.24344
1396,360.80685,376.41934
1397,366.54788,378.15405
1398,371.87595,379.44363
1399,376.77124,380.28452
1400,381.22498,380.6749
1401,385.2282,380.6138
1402,388.7661,380.10107
1403,391.83417,379.1383
1404,394.42093,377.72766
1405,396.522,375.8729
1406,398.13293,373.57855
1407,399.24774,370.85028
1408,399.86505,367.695
1409,399.98245,364.12054
1410,399.60028,360.13593
1411,398.71875,355.751
1412,397.34116,350.9768
1413,395.46924,345.82523
1414,393.11005,340.30923
1415,390.26837,334.44247
1416,386.9492,328.23962
1417,383.16486,321.71634
1418,378.92017,314.88873
1419,374.23096,307.77414
1420,369.10648,300.39005
1421,363.55603,292.7549
1422,357.60022,284.88815
1423,351.24667,276.80905
1424,344.51904,268.5382
1425,337.4304,260.0959
1426,329.99374,251.50319
1427,322.23676,242.78203
1428,314.1694,233.95374
1429,305.82166,225.04088
1430,297.20953,216.06523
1431,288.34906,207.04921
1432,279.27325,198.0159
1433,269.99362,188.98732
1434,260.54477,179.98663
1435,250.94466,171.03574
1436,241.2113,162.15697
1437,231.38087,153.37317
1438,221.466,144.70564
1439,211.50351,136.17671
1440,201.5123,127.80707
1441,191.5112,119.6176
1442,181.53741,111.629425
1443,171.6037,103.86188
1444,161.74702,96.335014
1445,151.9859,89.06701
1446,142.3389,82.07602
1447,132.84186,75.38015
1448,123.506966,68.995514
1449,114.36891,62.938683
1450,105.44479,57.224216
1451,96.75168,51.866375
1452,88.32188,46.87912
1453,80.16618,42.27437
1454,72.314926,38.06417
1455,64.782684,34.258533
1456,57.58394,30.866962
1457,50.745483,27.89841
1458,44.276093,25.359848
1459,38.1998,23.258043
1460,32.52771,21.597849
1461,27.270935,20.383419
1462,22.449036,19.618141
1463,18.068161,19.303598
1464,14.144592,19.44087
1465,10.685364,20.029346
1466,7.697403,21.067566
1467,5.1918335,22.553139
1468,3.1718597,24.482172
1469,1.6450043,26.849985
1470,0.613678,29.650537
1471,0.08030701,32.876858
1472,0.04685974,36.52092
1473,0.51338196,40.573597
1474,1.4781494,45.024734
1475,2.9388733,49.863243
1476,4.8932495,55.07706
1477,7.3339996,60.653038
1478,10.258026,66.57738
1479,13.654434,72.83508
1480,17.516373,79.41071
1481,21.83699,86.28786
1482,26.60019,93.449066
1483,31.799896,100.876724
1484,37.41678,108.551926
1485,43.439835,116.45583
1486,49.858032,124.568726
1487,56.647537,132.86992
1488,63.799637,141.33908
1489,71.287766,149.95459
1490,79.09743,158.69534
1491,87.21419,167.53955
1492,95.60784,176.4646
1493,104.26767,185.44868
1494,113.161446,194.4688
1495,122.27217,203.50294
1496,131.58281,212.5286
1497,141.05875,221.52258
1498,150.68787,230.46301
1499,160.43433,239.32692
1500,170.27965,248.09277
1501,180.20529,256.73868
1502,190.17435,265.2424
1503,200.17404,273.5833
1504,210.16722,281.7399
1505,220.135,289.6924
1506,230.0585,297.42105
1507,239.90083,304.90576
1508,249.64941,312.12854
1509,259.26794,319.07068
1510,268.73843,325.71545
1511,278.04282,332.04623
1512,287.14648,338.0466
1513,296.0378,343.70215
1514,304.68372,348.9982
1515,313.06805,353.92203
1516,321.1748,358.46136
1517,328.97382,362.6043
1518,336.45505,366.34106
1519,343.59073,369.66174
1520,350.36768,372.55853
1521,356.77277,375.02417
1522,362.78217,377.05212
1523,368.38818,378.63766
1524,373.56995,379.77652
1525,378.31815,380.46616
1526,382.62332,380.70483
1527,386.46948,380.49167
1528,389.85175,379.82748
1529,392.75748,378.71368
1530,395.18164,377.15326
1531,397.11926,375.15012
1532,398.56305,372.70914
1533,399.51123,369.8365
1534,399.96027,366.5393
1535,399.90973,362.82587
1536,399.35925,358.70544
1537,398.3109,354.1884
1538,396.76608,349.2859
1539,394.73047,344.0103
1540,392.20834,338.37476
1541,389.20407,332.39325
1542,385.72882,326.08093
1543,381.787,319.4534
1544,377.39328,312.52744
1545,372.5564,305.32013
1546,367.2851,297.84943
1547,361.59894,290.13437
1548,355.50525,282.19388
1549,349.02667,274.04816
1550,342.17575,265.71722
1551,334.96515,257.22183
1552,327.42166,248.58368
1553,319.55493,239.8239
1554,311.39426,230.9649
1555,302.9553,222.02832
1556,294.25372,213.03644
1557,285.3219,204.0123
1558,276.1713,194.9779
1559,266.8359,185.95642
1560,257.33356,176.96982
1561,247.68204,168.04053
1562,237.91725,159.19147
1563,228.0517,150.44415
1564,218.12204,141.82109
1565,208.14711,133.34322
1566,198.14574,125.03167
1567,188.15509,116.90788
1568,178.18796,108.99152
1569,168.28142,101.30304
1570,158.45412,93.861
1571,148.72472,86.68399
1572,139.12938,79.79057
1573,129.68039,73.19737
1574,120.4129,66.921486
1575,111.344246,60.977997
1576,102.491745,55.38175
1577,93.888306,50.147305
1578,85.54497,45.287193
1579,77.49274,40.81411
1580,69.74655,36.738705
1581,62.321365,33.071167
1582,55.24475,29.821144
1583,48.525803,26.9963
1584,42.18947,24.604132
1585,36.24739,22.650206
1586,30.711182,21.139408
1587,25.60138,20.07588
1588,20.92456,19.461935
1589,16.698105,19.299421
1590,12.929581,19.588455
1591,9.626541,20.328331
1592,6.8012543,21.51742
1593,4.457367,23.15255
1594,2.6035614,25.229794
1595,1.2429047,27.743818
1596,0.3784027,30.688366
1597,0.013320923,34.05614
1598,0.14805603,37.83868
1599,0.7821655,42.02653
1600,1.913971,46.60924
1601,3.5417786,51.575382
1602,5.659561,56.91245
1603,8.264587,62.607216
1604,11.347168,68.64529
1605,14.901062,75.01174
1606,18.919983,81.69071
1607,23.388962,88.66524
1608,28.302292,95.91816
1609,33.64171,103.43104
1610,39.39673,111.18541
1611,45.556854,119.161934
1612,52.099182,127.34028
1613,59.015335,135.70041
1614,66.27959,144.22098
1615,73.87792,152.88113
1616,81.79625,161.65929
1617,90.00515,170.53296
1618,98.49411,179.4805
1619,107.23156,188.47899
1620,116.20076,197.50648
1621,125.38499,206.54047
1622,134.75008,215.55775
1623,144.28403,224.53639
1624,153.95142,233.45332
1625,163.73384,242.28688
1626,173.61292,251.015
1627,183.55191,259.61523
1628,193.5381,268.0667
1629,203.53436,276.34766
1630,213.52177,284.43802
1631,223.48148,292.31763
1632,233.37643,299.9661
1633,243.19395,307.36496
1634,252.89755,314.4951
1635,262.469,321.33926
1636,271.89008,327.88043
1637,281.12573,334.1016
1638,290.16418,339.9878
1639,298.97183,345.52377
1640,307.5322,350.69623
1641,315.8289,355.49225
1642,323.83105,359.8993
1643,331.5285,363.90686
1644,338.89252,367.50446
1645,345.90955,370.68356
1646,352.56604,373.43625
1647,358.83716,375.7552
1648,364.71497,377.63498
1649,370.17755,379.07056
1650,375.21497,380.0587
1651,379.81732,380.5969
1652,383.96753,380.68353
1653,387.66025,380.31863
1654,390.88177,379.5029
1655,393.62637,378.23862
1656,395.8885,376.52887
1657,397.65973,374.3778
1658,398.93774,371.79095
1659,399.71783,368.77466
1660,399.99902,365.33655
1661,399.78024,361.48517
1662,399.06235,357.23016
1663,397.84625,352.58215
1664,396.13647,347.5528
1665,393.9367,342.1546
1666,391.2506,336.40103
1667,388.08826,330.30664
1668,384.4536,323.88644
1669,380.3603,317.15674
1670,375.81635,310.13412
1671,370.82996,302.83612
1672,365.41974,295.28125
1673,359.5926,287.4881
1674,353.37015,279.4765
1675,346.76456,271.2661
1676,339.78793,262.8774
1677,332.46625,254.3318
1678,324.80884,245.65019
1679,316.8442,236.8548
1680,308.58768,227.9671
1681,300.05457,219.00928
1682,291.2766,210.00424
1683,282.26508,200.974
1684,273.05347,191.94167
1685,263.65933,182.92924
1686,254.10028,173.95924
1687,244.41187,165.05469
1688,234.60649,156.23721
1689,224.72061,147.52953
1690,214.77296,138.95274
1691,204.78232,130.52827
1692,194.7858,122.27783
1693,184.79623,114.2214
1694,174.85074,106.37975
1695,164.96808,98.771866
1696,155.16699,91.41673
1697,145.48392,84.333374
1698,135.93127,77.53887
1699,126.54453,71.05083
1700,117.341324,64.88486
1701,108.33919,59.056366
1702,99.571594,53.580498
1703,91.04978,48.470375
1704,82.80544,43.73933
1705,74.853874,39.39865
1706,67.21039,35.459183
1707,59.90341,31.931273
1708,52.942307,28.823257
1709,46.35292,26.143364
1710,40.1474,23.897858
1711,34.337814,22.092354
1712,28.94577,20.731749
1713,23.97815,19.81908
1714,19.453445,19.35696
1715,15.379791,19.34624
1716,11.76532,19.786957
1717,8.623428,20.67825
1718,5.958191,22.017675
1719,3.77948,23.802063
1720,2.090973,26.026794
1721,0.8963318,28.68633
1722,0.19996643,31.774109
1723,0.0028076172,35.28235
1724,0.305542,39.202297
1725,1.107193,43.52416
1726,2.406662,48.237156
1727,4.199112,53.329433
1728,6.4822845,58.78836
1729,9.247665,64.60015
1730,12.489578,70.75043
1731,16.202362,77.22386
1732,20.372192,84.00403
1733,24.99376,91.074234
1734,30.04982,98.41651
1735,35.53047,106.01282
1736,41.425735,113.84419
1737,47.71367,121.89069
1738,54.38626,130.13258
1739,61.41867,138.54884
1740,68.79727,147.11887
1741,76.50848,155.82126
1742,84.52358,164.63379
1743,92.83233,173.53493
1744,101.403824,182.50189
1745,110.221634,191.51279
1746,119.269325,200.54515
1747,128.51324,209.5758
1748,137.94156,218.58276
1749,147.51921,227.54291
1750,157.22797,236.43443
1751,167.04962,245.23515
1752,176.94762,253.92245
1753,186.90929,262.47522
1754,196.8976,270.87143
1755,206.89368,279.09073
1756,216.8786,287.11264
1757,226.81526,294.9164
1758,236.69093,302.48322
1759,246.46889,309.79346
1760,256.13077,316.82953
1761,265.65814,323.57385
1762,275.0157,330.00894
1763,284.1913,336.11932
1764,293.15097,341.88913
1765,301.8779,347.3045
1766,310.3554,352.3519
1767,318.55197,357.01816
1768,326.4571,361.2922
1769,334.04135,365.16278
1770,341.29077,368.62073
1771,348.19128,371.65738
1772,354.7173,374.26474
1773,360.86035,376.43668
1774,366.59772,378.1674
1775,371.91885,379.45294
1776,376.81335,380.29007
1777,381.263,380.6764
1778,385.26215,380.6112
1779,388.79584,380.09445
1780,391.85788,379.12766
1781,394.44202,377.7132
1782,396.5387,375.85443
1783,398.1452,373.55618
1784,399.25555,370.8241
1785,399.8681,367.66504
1786,399.98123,364.0869
1787,399.59454,360.0987
1788,398.70856,355.7103
1789,397.3265,350.93274
1790,395.45148,345.77786
1791,393.08658,340.2586
1792,390.2406,334.38885
1793,386.91718,328.18314
1794,383.12866,321.65714
1795,378.88263,314.82697
1796,374.18674,307.70966
1797,369.0584,300.32333
1798,363.50418,292.6861
1799,357.54474,284.8174
1800,351.19174,276.7366
1801,344.4568,268.4638
1802,337.36496,260.02014
1803,329.9253,251.4263
1804,322.1655,242.70418
1805,314.10046,233.87514
1806,305.74524,224.96121
1807,297.13083,215.98521
1808,288.2683,206.96904
1809,279.19055,197.93579
1810,269.915,188.90749
1811,260.45895,179.90665
1812,250.85759,170.95639
1813,241.12318,162.07849
1814,231.29196,153.29575
1815,221.38254,144.6295
1816,211.41362,136.1014
1817,201.42226,127.73337
1818,191.42125,119.545715
1819,181.44775,111.55955
1820,171.52063,103.7942
1821,161.65865,96.26904
1822,151.8985,89.00353
1823,142.25269,82.015205
1824,132.75705,75.32216
1825,123.42942,68.940506
1826,114.28755,62.88618
1827,105.36546,57.17492
1828,96.674576,51.820415
1829,88.24719,46.83662
1830,80.099,42.235447
1831,72.24564,38.02839
1832,64.716354,34.22647
1833,57.520737,30.838707
1834,50.685577,27.874039
1835,44.223434,25.339424
1836,38.14688,23.241201
1837,32.478516,21.585016
1838,27.22557,20.374628
1839,22.407608,19.613413
1840,18.03331,19.302948
1841,14.111359,19.44402
1842,10.656342,20.036537
1843,7.6726837,21.078783
1844,5.171463,22.56835
1845,3.1569977,24.501337
1846,1.6334991,26.87293
1847,0.60665894,29.677313
1848,0.07777405,32.907387
1849,0.048828125,36.555122
1850,0.51942444,40.611378
1851,1.4891052,45.06604
1852,2.9542847,49.907925
1853,4.9130707,55.124996
1854,7.3582,60.7041
1855,10.284576,66.631424
1856,13.687149,72.89219
1857,17.553253,79.47053
1858,21.877914,86.35023
1859,26.64508,93.513824
1860,31.845337,100.943695
1861,37.46924,108.62129
1862,43.495865,116.52708
1863,49.917526,124.64166
1864,56.710342,132.94435
1865,63.861115,141.4148
1866,71.35669,150.03188
1867,79.16917,158.77357
1868,87.28854,167.61852
1869,95.68466,176.54407
1870,104.34137,185.52844
1871,113.24256,194.54922
1872,122.35513,203.58331
1873,131.66742,212.60867
1874,141.14479,221.60214
1875,150.76921,230.54185
1876,160.52258,239.40549
1877,170.36868,248.17026
1878,180.29488,256.81488
1879,190.26427,265.3171
1880,200.25798,273.6563
1881,210.25714,281.81168
1882,220.22456,289.76218
1883,230.1475,297.4886
1884,239.98906,304.97095
1885,249.73071,312.19116
1886,259.35394,319.1312
1887,268.823,325.77313
1888,278.1257,332.10095
1889,287.22754,338.09824
1890,296.11142,343.75055
1891,304.7604,349.0438
1892,313.14233,353.96417
1893,321.24643,358.49994
1894,329.0426,362.63925
1895,336.5164,366.37222
1896,343.65338,369.68954
1897,350.427,372.58246
1898,356.82864,375.0442
1899,362.83444,377.06815
1900,368.43344,378.64966
1901,373.6147,379.7848
1902,378.3589,380.47034
1903,382.66,380.70496
1904,386.502,380.48776
1905,389.8781,379.81952
1906,392.78146,378.7019
1907,395.2013,377.1375
1908,397.13446,375.13043
1909,398.57382,372.68555
1910,399.5171,369.80908
1911,399.96204,366.50818
1912,399.90698,362.79108
1913,399.35205,358.6671
1914,398.29926,354.14658
1915,396.75104,349.24072
1916,394.7099,343.9618
1917,392.18344,338.32312
1918,389.17487,332.33862
1919,385.69537,326.0235
1920,381.75198,319.39328
1921,377.35168,312.46454
1922,372.51086,305.25485
1923,367.23572,297.78195
1924,361.5459,290.06488
1925,355.45245,282.12256
1926,348.96658,273.9748
1927,342.11243,265.64236
1928,334.89868,257.1457
1929,327.35223,248.50647
1930,319.48767,239.74583
1931,311.31946,230.88565
1932,302.87808,221.94858
1933,294.1743,212.9564
1934,285.24048,203.93219
1935,276.0937,194.89793
1936,266.75104,185.87617
1937,257.2473,176.89008
1938,247.5946,167.9615
1939,237.82884,159.11339
1940,227.96858,150.36723
1941,218.03236,141.74487
1942,208.05716,133.2685
1943,198.0557,124.95865
1944,188.0652,116.836754
1945,178.10452,108.922485
1946,168.19252,101.23559
1947,158.36606,93.79593
1948,148.6377,86.62147
1949,139.04361,79.73078
1950,129.60184,73.14047
1951,120.330315,66.86699
1952,111.26355,60.926617
1953,102.41314,55.333626
1954,93.812004,50.10257
1955,85.47615,45.245968
1956,77.421585,40.775948
1957,69.67825,36.704212
1958,62.256073,33.040432
1959,55.182632,29.794249
1960,48.470993,26.973318
1961,42.13417,24.584688
1962,36.195724,22.634747
1963,30.663254,21.127974
1964,25.557312,20.068499
1965,20.887192,19.458632
1966,16.66211,19.299904
1967,12.897751,19.592993
1968,9.598953,20.336908
1969,6.778,21.530014
1970,4.4397583,23.169128
1971,2.589096,25.25017
1972,1.2328949,27.768068
1973,0.3728943,30.716423
1974,0.012283325,34.08793
1975,0.15130615,37.87411
1976,0.7901459,42.065536
1977,1.9264069,46.65169
1978,3.55867,51.621166
1979,5.680847,56.961445
1980,8.288483,62.65929
1981,11.37709,68.70049
1982,14.935196,75.06976
1983,18.958221,81.75138
1984,23.431229,88.7284
1985,28.345352,95.98364
1986,33.69171,103.499016
1987,39.450394,111.25539
1988,45.614075,119.23373
1989,52.159805,127.41369
1990,59.07486,135.77524
1991,66.34656,144.2975
1992,73.9478,152.95872
1993,81.86889,161.73773
1994,90.08035,170.61205
1995,98.56644,179.56001
1996,107.31133,188.5593
1997,116.282524,197.58685
1998,125.46853,206.62068
1999,134.83519,215.63759
2000,144.36465,224.61563
2001,154.03903,233.53241
2002,163.82239,242.36502
2003,173.70218,251.092
2004,183.64165,259.69086
2005,193.622,268.14078
2006,203.62437,276.42065
2007,213.6116,284.50916
2008,223.57089,292.38666
2009,233.4652,300.03287
2010,243.2759,307.42926
2011,252.98438,314.55743
2012,262.5545,321.3989
2013,271.9741,327.93716
2014,281.20804,334.15527
2015,290.2391,340.03833
2016,299.05005,345.5716
2017,307.6081,350.74066
2018,315.90228,355.53317
2019,323.90176,359.93658
2020,331.5917,363.94046
2021,338.95728,367.53476
2022,345.97113,370.71005
2023,352.6242,373.45883
2024,358.89188,375.7738
2025,364.76254,377.64957
2026,370.22482,379.08145
2027,375.25836,380.06552
2028,379.85675,380.59964
2029,384.00284,380.6822
2030,387.68927,380.31326
2031,390.9086,379.4937
2032,393.6489,378.2254
2033,395.90665,376.5117
2034,397.6734,374.3567
2035,398.94635,371.76596
2036,399.7226,368.74594
2037,399.99927,365.3041
2038,399.776,361.4491
2039,399.05362,357.19055
2040,397.83392,352.5391
2041,396.11884,347.50635
2042,393.91467,342.10498
2043,391.22424,336.34836
2044,388.05762,330.25104
2045,384.42117,323.8281
2046,380.32135,317.09555
2047,375.77338,310.07047
2048,370.78314,302.77014
2049,365.36914,295.21317
2050,359.542,287.41806
2051,353.31235,279.4043
2052,346.70337,271.1923
2053,339.7235,262.8022
2054,332.39877,254.25539
2055,324.74326,245.57278
2056,316.77112,236.77606
2057,308.51205,227.88773
2058,299.9766,218.92947
2059,291.1965,209.92424
2060,282.18857,200.894
2061,272.96964,191.86127
2062,263.57397,182.84923
2063,254.01361,173.87982
2064,244.32408,164.97606
2065,234.52382,156.15962
2066,224.63126,147.4525
2067,214.68317,138.87709
2068,204.6923,130.4542
2069,194.6958,122.20552
2070,184.71254,114.15105
2071,174.76143,106.31088
2072,164.87944,98.70527
2073,155.07925,91.352585
2074,145.39731,84.27184
2075,135.85176,77.480125
2076,126.4608,70.99439
2077,117.25934,64.83146
2078,108.25916,59.00614
2079,99.493744,53.533585
2080,90.97941,48.426903
2081,82.73248,43.698845
2082,74.78366,39.361774
2083,67.14308,35.42601
2084,59.839172,31.901892
2085,52.88542,28.79775
2086,46.295303,26.121344
2087,40.093307,23.879793
2088,34.2874,22.078293
2089,28.899124,20.721725
2090,23.938324,19.813128
2091,19.414734,19.354773
2092,15.345184,19.348112
2093,11.734909,19.792881
2094,8.597305,20.688211
2095,5.9378815,22.031647
2096,3.762085,23.819843
2097,2.078003,26.048483
2098,0.88783264,28.71187
2099,0.19596863,31.80343
2100,0.0032653809,35.315372
2101,0.31054688,39.23894
2102,1.1166687,43.56432
2103,2.4205933,48.280727
2104,4.2174835,53.3763
2105,6.503479,58.83839
2106,9.2747345,64.65338
2107,12.52092,70.806564
2108,16.237885,77.28275
2109,20.41182,84.06552
2110,25.034393,91.13815
2111,30.097305,98.48302
2112,35.581726,106.081436
2113,41.480606,113.91474
2114,47.772064,121.96298
2115,54.443817,130.20642
2116,61.483597,138.62448
2117,68.86525,147.1957
2118,76.57931,155.89908
2119,84.5971,164.71239
2120,92.9032,173.61409
2121,101.48216,182.58197
2122,110.30209,191.59306
2123,119.35171,200.6254
2124,128.59734,209.65582
2125,138.02136,218.66234
2126,147.6061,227.62245
2127,157.31593,236.51317
2128,167.13843,245.31287
2129,177.03705,253.99893
2130,186.99304,262.55026
2131,196.98763,270.94553
2132,206.98366,279.16306
2133,216.96832,287.18298
2134,226.90448,294.98462
2135,236.77344,302.54907
2136,246.55646,309.85748
2137,256.21716,316.89093
2138,265.7432,323.63248
2139,275.09912,330.06464
2140,284.26746,336.1719
2141,293.23062,341.93906
2142,301.95538,347.3511
2143,310.43048,352.3951
2144,318.62448,357.05783
2145,326.5221,361.3282
2146,334.10815,365.19553
2147,341.3545,368.64966
2148,348.25177,371.68246
2149,354.77432,374.2859
2150,360.91022,376.45386
2151,366.64752,378.18094
2152,371.96484,379.46243
2153,376.8554,380.29553
2154,381.30103,380.67776
2155,385.29373,380.60852
2156,388.82553,380.08795
2157,391.88327,379.1171
2158,394.46307,377.69864
2159,396.55536,375.8359
2160,398.1566,373.53375
2161,399.26328,370.7979
2162,399.87134,367.6351
2163,399.97998,364.0533
2164,399.5888,360.0615
2165,398.699,355.66956
2166,397.31183,350.88852
2167,395.43237,345.7304
2168,393.0631,340.20798
2169,390.2128,334.3352
2170,386.88727,328.1266
2171,383.09244,321.59763
2172,378.84235,314.7649
2173,374.14246,307.64517
2174,369.01025,300.2566
2175,363.4558,292.6173
2176,357.48926,284.74637
2177,351.1328,276.66385
2178,344.39453,268.38953
2179,337.2995,259.94452
2180,329.86148,251.34952
2181,322.09418,242.62598
2182,314.02652,233.79617
2183,305.66882,224.8817
2184,297.05212,215.90536
2185,288.19296,206.88905
2186,279.10788,197.8553
2187,269.83063,188.82724
2188,260.37314,179.82687
2189,250.77051,170.8773
2190,241.04105,162.00027
2191,231.20302,153.21797
2192,221.29303,144.55298
2193,211.32373,136.02632
2194,201.33223,127.65994
2195,191.33739,119.47414
2196,181.35811,111.489334
2197,171.43152,103.72614
2198,161.57028,96.20333
2199,151.81111,88.94034
2200,142.17233,81.9547
2201,132.67227,75.263855
2202,123.346245,68.88515
2203,114.20622,62.83392
2204,105.286156,57.125885
2205,96.602715,51.774742
2206,88.17253,46.793858
2207,80.02695,42.196228
2208,72.176384,37.992813
2209,64.65004,34.194637
2210,57.461853,30.810705
2211,50.625687,27.849466
2212,44.166977,25.318775
2213,38.09401,23.22453
2214,32.429337,21.572367
2215,27.183304,20.366037
2216,22.36621,19.608564
2217,17.995972,19.302158
2218,14.078171,19.44729
2219,10.627365,20.04386
2220,7.6496735,21.090137
2221,5.1511536,22.583523
2222,3.1410828,24.520452
2223,1.6220398,26.895939
2224,0.5996704,29.70415
2225,0.07545471,32.93798
2226,0.050842285,36.589375
2227,0.5259247,40.64921
2228,1.5000763,45.107353
2229,2.9697113,49.952606
2230,4.9315643,55.17293
2231,7.3824005,60.755306
2232,10.31311,66.68563
2233,13.71991,72.94925
2234,17.590149,79.53029
2235,21.916107,86.41252
2236,26.689987,93.57879
2237,31.894089,101.01088
2238,37.521713,108.69053
2239,43.55194,116.598175
2240,49.973022,124.714424
2241,56.773163,133.01903
2242,63.927094,141.4908
2243,71.425644,150.10898
2244,79.24092,158.85158
2245,87.35789,167.69722
2246,95.76149,176.62381
2247,104.42045,185.6085
2248,113.32369,194.62941
2249,122.43812,203.66339
2250,131.7463,212.68843
2251,141.23085,221.682
2252,150.85648,230.62103
2253,160.61086,239.48376
2254,170.45773,248.24744
2255,180.3784,256.89075
2256,190.3542,265.39212
2257,200.348,273.72968
2258,210.34706,281.8832
2259,220.31415,289.8317
2260,230.23048,297.55588
2261,240.07727,305.0365
2262,249.8179,312.2542
2263,259.4399,319.1916
2264,268.90753,325.83066
2265,278.20297,332.15546
2266,287.30853,338.1502
2267,296.19037,343.7993
2268,304.8371,349.08917
2269,313.21655,354.00607
2270,321.31317,358.53824
2271,329.1114,362.67438
2272,336.58218,366.40363
2273,343.716,369.7171
2274,350.48633,372.6061
2275,356.8807,375.06387
2276,362.88672,377.08423
2277,368.48196,378.66174
2278,373.65936,379.79282
2279,378.3996,380.47433
2280,382.69415,380.70486
2281,386.53455,380.48386
2282,389.90637,379.81158
2283,392.80542,378.68997
2284,395.2209,377.12158
2285,397.1486,375.11053
2286,398.58453,372.66187
2287,399.52332,369.7816
2288,399.96375,366.47696
2289,399.90424,362.75623
2290,399.34528,358.6287
2291,398.2875,354.1046
2292,396.73486,349.1954
2293,394.68933,343.91324
2294,392.1585,338.27145
2295,389.1476,332.28403
2296,385.66193,325.96585
2297,381.7144,319.33298
2298,377.31006,312.4017
2299,372.4653,305.18967
2300,367.1897,297.7146
2301,361.4928,289.99515
2302,355.3958,282.05096
2303,348.9065,273.90155
2304,342.04904,265.5677
2305,334.83673,257.06976
2306,327.2828,248.42899
2307,319.41544,239.66745
2308,311.24466,230.80656
2309,302.80084,221.869
2310,294.10025,212.87657
2311,285.159,203.85173
2312,276.0104,194.8176
2313,266.66617,185.79617
2314,257.161,176.81062
2315,247.51308,167.88281
2316,237.74043,159.035
2317,227.87943,150.28996
2318,217.9427,141.66891
2319,207.9672,133.19405
2320,197.97177,124.88592
2321,187.97533,116.76527
2322,178.01503,108.85304
2323,168.10364,101.16838
2324,158.27798,93.73113
2325,148.55658,86.559265
2326,138.95787,79.67068
2327,129.51756,73.08321
2328,120.24774,66.81273
2329,111.18287,60.875504
2330,102.33989,55.285797
2331,93.73572,50.057564
2332,85.40234,45.204433
2333,77.35045,40.738003
2334,69.60997,36.669952
2335,62.195236,33.009953
2336,55.120544,29.767143
2337,48.412247,26.9501
2338,42.07892,24.565418
2339,36.144073,22.619474
2340,30.618591,21.116743
2341,25.513306,20.060984
2342,20.847153,19.455172
2343,16.626144,19.300508
2344,12.865967,19.59766
2345,9.573288,20.345627
2346,6.754776,21.542553
2347,4.4209137,23.18564
2348,2.5746765,25.27061
2349,1.2229309,27.792383
2350,0.3677826,30.744545
2351,0.011306763,34.119743
2352,0.15483093,37.909573
2353,0.79815674,42.104546
2354,1.9389038,46.694145
2355,3.5744476,51.66695
2356,5.702179,57.010563
2357,8.314163,62.7115
2358,11.407043,68.755646
2359,14.969345,75.127716
2360,18.993896,81.81198
2361,23.473541,88.79177
2362,28.391571,96.049355
2363,33.74173,103.56689
2364,39.504105,111.32523
2365,45.66745,119.30537
2366,52.22046,127.487366
2367,59.13878,135.85036
2368,66.41354,144.37387
2369,74.017715,153.03613
2370,81.93662,161.81596
2371,90.15559,170.69145
2372,98.64404,179.63988
2373,107.39113,188.6394
2374,116.3643,197.667
2375,125.54642,206.70065
2376,134.92032,215.71779
2377,144.45114,224.69528
2378,154.12668,233.6113
2379,163.91095,242.44292
2380,173.78539,251.1687
2381,183.73138,259.76685
2382,193.71199,268.21524
2383,203.7144,276.4934
2384,213.70143,284.58
2385,223.65424,292.45538
2386,233.55396,300.09998
2387,243.3638,307.49396
2388,253.0712,314.6195
2389,262.64,321.45822
2390,272.05237,327.9936
2391,281.2903,334.2093
2392,290.31946,340.08917
2393,299.12827,345.61914
2394,307.684,350.7848
2395,315.97067,355.57376
2396,323.9724,359.9741
2397,331.6595,363.97427
2398,339.02203,367.56482
2399,346.03265,370.73627
2400,352.67847,373.4811
2401,358.94653,375.7925
2402,364.81357,377.6643
2403,370.27206,379.09216
2404,375.30173,380.07217
2405,379.89343,380.60223
2406,384.03812,380.681
2407,387.72034,380.308
2408,390.93542,379.48444
2409,393.6714,378.21213
2410,395.92352,376.49445
2411,397.68707,374.33566
2412,398.95557,371.74106
2413,399.72733,368.71722
2414,399.9995,365.27167
2415,399.77203,361.41306
2416,399.04486,357.15094
2417,397.8207,352.49606
2418,396.10117,347.46
2419,393.8926,342.05542
2420,391.19965,336.29575
2421,388.02698,330.1953
2422,384.3863,323.76956
2423,380.28238,317.03436
2424,375.7304,310.00684
2425,370.73944,302.70425
2426,365.31848,295.1448
2427,359.48767,287.34772
2428,353.25452,279.33218
2429,346.64215,271.1186
2430,339.66345,262.7271
2431,332.33127,254.17863
2432,324.67285,245.49501
2433,316.698,236.69748
2434,308.4364,227.80853
2435,299.9039,218.84988
2436,291.11636,209.84389
2437,282.1065,200.81363
2438,272.8858,191.7811
2439,263.4886,182.76947
2440,253.93279,173.80067
2441,244.23627,164.89711
2442,234.43513,156.08165
2443,224.5419,147.37572
2444,214.59338,138.8017
2445,204.6084,130.3804
2446,194.60579,122.13284
2447,184.62277,114.0803
2448,174.6721,106.24225
2449,164.79082,98.63894
2450,154.99747,91.288734
2451,145.3107,84.209984
2452,135.76648,77.42102
2453,126.37708,70.938194
2454,117.177376,64.77832
2455,108.18459,58.956207
2456,99.41591,53.48639
2457,90.90394,48.383106
2458,82.65957,43.658573
2459,74.713455,39.32513
2460,67.08035,35.393097
2461,59.774963,31.87229
2462,52.824448,28.771992
2463,46.2377,26.099497
2464,40.039246,23.86192
2465,34.240417,22.064438
2466,28.852524,20.711552
2467,23.895615,19.807001
2468,19.376053,19.352713
2469,15.310623,19.35012
2470,11.706589,19.798954
2471,8.571213,20.698107
2472,5.9161224,22.04554
2473,3.7447205,23.837698
2474,2.065094,26.070251
2475,0.8799591,28.737494
2476,0.1920166,31.832777
2477,0.0037994385,35.34842
2478,0.31558228,39.2756
2479,1.1261902,43.604492
2480,2.4336395,48.324306
2481,4.235901,53.42327
2482,6.5262756,58.888535
2483,9.301849,64.706566
2484,12.552292,70.86265
2485,16.271027,77.34158
2486,20.451447,84.1272
2487,25.078018,91.202286
2488,30.144821,98.54942
2489,35.63301,106.14994
2490,41.5318,113.98516
2491,47.830475,122.03553
2492,54.50557,130.28053
2493,61.548553,138.69998
2494,68.93324,147.27235
2495,76.64536,155.9767
2496,84.670654,164.7913
2497,92.979256,173.6936
2498,101.56053,182.66187
2499,110.38258,191.67313
2500,119.42852,200.70541
2501,128.68146,209.73618
2502,138.10696,218.74226
2503,147.693,227.70175
2504,157.4039,236.59161
2505,167.22122,245.39026
2506,177.1265,254.07571
2507,187.08289,262.62564
2508,197.07765,271.0193
2509,207.07364,279.23502
2510,217.05194,287.25296
2511,226.9937,295.05307
2512,236.86194,302.61523
2513,246.64401,309.92117
2514,256.30356,316.95197
2515,265.82245,323.69067
2516,275.18256,330.12048
2517,284.3491,336.2247
2518,293.31027,341.98868
2519,302.0328,347.3974
2520,310.50046,352.43793
2521,318.69696,357.09766
2522,326.5918,361.3644
2523,334.17496,365.22803
2524,341.41815,368.67838
2525,348.30804,371.7073
2526,354.83133,374.30722
2527,360.96368,376.47122
2528,366.69727,378.19427
2529,372.0108,379.4717
2530,376.8946,380.30072
2531,381.33905,380.6792
2532,385.3276,380.6059
2533,388.85516,380.08127
2534,391.90866,379.10638
2535,394.48267,377.68393
2536,396.57196,375.8174
2537,398.16876,373.51135
2538,399.271,370.77167
2539,399.87454,367.6051
2540,399.97876,364.01962
2541,399.583,360.0242
2542,398.68872,355.62878
2543,397.29706,350.84436
2544,395.4132,345.68295
2545,393.04114,340.15738
2546,390.18494,334.28143
2547,386.85522,328.06995
2548,383.0562,321.53827
2549,378.80203,314.70294
2550,374.1012,307.5808
2551,368.9621,300.18967
2552,363.40393,292.5483
2553,357.43378,284.67548
2554,351.0738,276.59125
2555,344.33643,268.3154
2556,337.234,259.86862
2557,329.79297,251.27248
2558,322.02286,242.54799
2559,313.95255,233.71745
2560,305.59753,224.80246
2561,296.9734,215.82524
2562,288.11215,206.80878
2563,279.02518,197.77507
2564,269.74628,188.7473
2565,260.2931,179.74742
2566,250.68341,170.7979
2567,240.95291,161.92172
2568,231.11409,153.14049
2569,221.20349,144.47676
2570,211.23993,135.95157
2571,201.24219,127.58619
2572,191.24744,119.40219
2573,181.26846,111.41938
2574,171.3424,103.65837
2575,161.48793,96.137924
2576,151.72374,88.87681
2577,142.08615,81.89382
2578,132.5875,75.20579
2579,123.2631,68.83005
2580,114.13041,62.78193
2581,105.20686,57.076546
2582,96.52566,51.728733
2583,88.09789,46.751297
2584,79.954926,42.157234
2585,72.11185,37.957493
2586,64.58377,34.162567
2587,57.398697,30.782433
2588,50.565826,27.82507
2589,44.110565,25.298319
2590,38.044754,23.208069
2591,32.38022,21.559547
2592,27.138,20.357252
2593,22.32486,19.603836
2594,17.958649,19.3015
2595,14.047241,19.450706
2596,10.598434,20.051092
2597,7.6250305,21.101389
2598,5.1308594,22.598763
2599,3.1251984,24.53964
2600,1.6113892,26.919025
2601,0.59272766,29.730986
2602,0.07299805,32.96857
2603,0.052886963,36.623634
2604,0.5324707,40.687054
2605,1.510376,45.148678
2606,2.985199,49.99738
2607,4.951462,55.22096
2608,7.406662,60.806458
2609,10.34166,66.73977
2610,13.750473,73.006226
2611,17.62709,79.5902
2612,21.957092,86.47499
2613,26.734955,93.64365
2614,31.942886,101.07795
2615,37.570663,108.75963
2616,43.608047,116.66952
2617,50.032578,124.78747
2618,56.836014,133.09357
2619,63.993103,141.56662
2620,71.489944,150.18591
2621,79.312706,158.9299
2622,87.432304,167.77626
2623,95.83833,176.70337
2624,104.49955,185.68839
2625,113.39934,194.70938
2626,122.52112,203.74384
2627,131.83095,212.7686
2628,141.31693,221.76169
2629,150.94376,230.7
2630,160.69315,239.56181
2631,170.54678,248.325
2632,180.46802,256.96704
2633,190.44414,265.46695
2634,200.43805,273.80283
2635,210.43088,281.95447
2636,220.40372,289.90155
2637,230.31947,297.62354
2638,240.16548,305.10178
2639,249.9051,312.31693
2640,259.52005,319.2516
2641,268.99203,325.88846
2642,278.28583,332.2103
2643,287.38953,338.2019
2644,296.2693,343.84775
2645,304.90857,349.13425
2646,313.29077,354.04822
2647,321.38474,358.57684
2648,329.1801,362.70932
2649,336.64795,366.4348
2650,343.77435,369.74448
2651,350.54565,372.63004
2652,356.93655,375.08386
2653,362.93893,377.10022
2654,368.53046,378.6737
2655,373.701,379.80072
2656,378.4403,380.4785
2657,382.73077,380.70496
2658,386.567,380.4799
2659,389.9346,379.80356
2660,392.8277,378.6779
2661,395.24042,377.10568
2662,397.16373,375.09073
2663,398.5952,372.63818
2664,399.5295,369.75406
2665,399.96533,366.4457
2666,399.90143,362.7213
2667,399.33795,358.5902
2668,398.27573,354.06268
2669,396.71863,349.15012
2670,394.6701,343.86472
2671,392.1335,338.2197
2672,389.11835,332.22928
2673,385.62842,325.90826
2674,381.67676,319.2727
2675,377.2712,312.33896
2676,372.41968,305.12427
2677,367.14026,297.647
2678,361.43964,289.92554
2679,355.3391,281.97955
2680,348.85046,273.8285
2681,341.98566,265.4927
2682,334.7702,256.9935
2683,327.21335,248.35165
2684,319.3432,239.58926
2685,311.1749,230.72772
2686,302.72363,221.78915
2687,294.02078,212.79643
2688,285.07755,203.7715
2689,275.92712,194.7375
2690,266.58704,185.71643
2691,257.07474,176.7308
2692,247.42561,167.80371
2693,237.65201,158.95683
2694,227.79027,150.21294
2695,217.8591,141.59323
2696,207.87723,133.11925
2697,197.88174,124.81281
2698,187.88547,116.694046
2699,177.92555,108.78388
2700,168.02078,101.10148
2701,158.18994,93.666
2702,148.46957,86.49667
2703,138.87213,79.6108
2704,129.43332,73.02621
2705,120.17077,66.75875
2706,111.1022,60.82408
2707,102.26132,55.237625
2708,93.65945,50.01277
2709,85.32857,45.163143
2710,77.28416,40.70032
2711,69.5417,36.635452
2712,62.12999,32.979206
2713,55.058502,29.74023
2714,48.353546,26.92709
2715,42.02742,24.546371
2716,36.09247,22.604034
2717,30.57074,21.10532
2718,25.469315,20.053608
2719,20.807144,19.451862
2720,16.592651,19.301275
2721,12.834213,19.602234
2722,9.545792,20.354237
2723,6.731598,21.555176
2724,4.4020996,23.20224
2725,2.561264,25.291145
2726,1.2130127,27.816689
2727,0.36235046,30.772654
2728,0.010375977,34.151577
2729,0.15838623,37.945045
2730,0.8059387,42.143566
2731,1.9514313,46.736637
2732,3.5914154,51.712772
2733,5.722824,57.05959
2734,8.339859,62.763676
2735,11.43602,68.81077
2736,15.003555,75.185745
2737,19.032211,81.87266
2738,23.514435,88.854935
2739,28.437836,96.115
2740,33.790085,103.63469
2741,39.55783,111.39521
2742,45.72473,119.37715
2743,52.279083,127.56076
2744,59.202713,135.9254
2745,66.4783,144.45015
2746,74.087654,153.1137
2747,82.009315,161.89436
2748,90.228294,170.7705
2749,98.72167,179.71964
2750,107.46823,188.71942
2751,116.4461,197.74733
2752,125.63,206.7808
2753,135.00258,215.79756
2754,144.53763,224.77478
2755,154.21133,233.69002
2756,163.99951,242.521
2757,173.87463,251.24562
2758,183.81808,259.8424
2759,193.80199,268.28955
2760,203.80138,276.56595
2761,213.79126,284.6509
2762,223.74364,292.52423
2763,233.63971,300.16653
2764,243.45169,307.5584
2765,253.15504,314.6814
2766,262.72552,321.51767
2767,272.13635,328.05014
2768,281.36978,334.26282
2769,290.39978,340.13983
2770,299.2038,345.6665
2771,307.75983,350.82904
2772,316.044,355.61453
2773,324.04065,360.01126
2774,331.72723,364.00803
2775,339.08453,367.5948
2776,346.09418,370.7626
2777,352.73657,373.50357
2778,358.99933,375.81104
2779,364.86456,377.67902
2780,370.3177,379.10284
2781,375.34503,380.07898
2782,379.93274,380.60498
2783,384.07214,380.67966
2784,387.7514,380.3027
2785,390.9613,379.47507
2786,393.69385,378.19882
2787,395.9416,376.47717
2788,397.70026,374.31448
2789,398.96475,371.71606
2790,399.73187,368.68845
2791,399.9997,365.2392
2792,399.7677,361.37692
2793,399.03632,357.1113
2794,397.80743,352.45297
2795,396.08405,347.4136
2796,393.8705,342.0058
2797,391.17322,336.24307
2798,387.9973,330.13974
2799,384.35144,323.71112
2800,380.2447,316.9733
2801,375.68744,309.94315
2802,370.69254,302.6382
2803,365.2695,295.07663
2804,359.43335,287.27744
2805,353.1986,279.26013
2806,346.58093,271.04474
2807,339.599,262.65186
2808,332.26605,254.1022
2809,324.60245,245.41733
2810,316.62735,236.61897
2811,308.36075,227.72916
2812,299.82587,218.7701
2813,291.0389,209.7639
2814,282.02438,200.73334
2815,272.8048,191.701
2816,263.4032,182.68947
2817,253.84608,173.72128
2818,244.15144,164.81853
2819,234.34644,156.00377
2820,224.45558,147.29903
2821,214.50359,138.72607
2822,204.51837,130.30635
2823,194.51884,122.06058
2824,184.533,114.00966
2825,174.58583,106.17374
2826,164.70218,98.57239
2827,154.90976,91.22463
2828,145.22702,84.14851
2829,135.68123,77.362015
2830,126.29621,70.8821
2831,117.095436,64.72498
2832,108.104614,58.906048
2833,99.34074,53.43954
2834,90.828476,48.33941
2835,82.589134,43.618404
2836,74.64329,39.288322
2837,67.01309,35.359997
2838,59.71295,31.842987
2839,52.763504,28.746325
2840,46.182114,26.077751
2841,39.985214,23.843933
2842,34.19005,22.050457
2843,28.807526,20.701614
2844,23.852951,19.800959
2845,19.338715,19.350737
2846,15.276093,19.352072
2847,11.67627,19.804958
2848,8.546036,20.708145
2849,5.894394,22.059492
2850,3.7279816,23.855614
2851,2.0522003,26.092018
2852,0.87153625,28.763111
2853,0.18821716,31.862175
2854,0.0043792725,35.381504
2855,0.32048035,39.312294
2856,1.1357574,43.64472
2857,2.447647,48.36794
2858,4.253723,53.470192
2859,6.549118,58.93869
2860,9.3280945,64.75976
2861,12.58371,70.91883
2862,16.306625,77.40051
2863,20.489792,84.18873
2864,25.121704,91.26639
2865,30.190765,98.6158
2866,35.68431,106.21859
2867,41.58676,114.05574
2868,47.886932,122.10785
2869,54.567368,130.35461
2870,61.611343,138.77542
2871,69.00125,147.34921
2872,76.716255,156.05453
2873,84.74172,164.8699
2874,93.05532,173.77304
2875,101.63626,182.74168
2876,110.46308,191.7534
2877,119.51094,200.78566
2878,128.76273,209.8162
2879,138.1926,218.82214
2880,147.77695,227.78099
2881,157.49188,236.67033
2882,167.31004,245.46794
2883,177.2129,254.15216
2884,187.17274,262.701
2885,197.16463,271.09302
2886,207.16362,279.30728
2887,217.14165,287.32324
2888,227.07988,295.1212
2889,236.95042,302.68137
2890,246.72859,309.98483
2891,256.38995,317.0133
2892,265.90747,323.74924
2893,275.26318,330.1761
2894,284.43073,336.27753
2895,293.3872,342.03827
2896,302.11023,347.44397
2897,310.5755,352.48105
2898,318.76694,357.1372
2899,326.6615,361.40057
2900,334.23944,365.2605
2901,341.4818,368.70728
2902,348.36847,371.73233
2903,354.88638,374.3283
2904,361.0171,376.48853
2905,366.74533,378.20758
2906,372.0567,379.48117
2907,376.93658,380.30612
2908,381.37573,380.6805
2909,385.36145,380.60327
2910,388.8838,380.07462
2911,391.934,379.09583
2912,394.50366,377.66937
2913,396.588,375.7989
2914,398.1809,373.48898
2915,399.27838,370.74545
2916,399.87772,367.57513
2917,399.97745,363.98596
2918,399.5774,359.9869
2919,398.6784,355.58798
2920,397.2828,350.80017
2921,395.39404,345.63544
2922,393.0176,340.10672
2923,390.15802,334.22775
2924,386.8231,328.01328
2925,383.02112,321.47885
2926,378.76166,314.6408
2927,374.05685,307.5163
2928,368.91553,300.12292
2929,363.352,292.4793
2930,357.3801,284.60458
2931,351.01477,276.51843
2932,344.2741,268.24106
2933,337.17072,259.79297
2934,329.7245,251.19547
2935,321.95395,242.47003
2936,313.87854,233.6385
2937,305.52106,224.72296
2938,296.8973,215.74539
2939,288.0313,206.72852
2940,278.94525,197.69487
2941,269.66187,188.66705
2942,260.20724,179.66763
2943,250.59926,170.7188
2944,240.86479,161.8432
2945,231.02815,153.06303
2946,221.11397,144.40025
2947,211.15004,135.87651
2948,201.15521,127.512794
2949,191.15749,119.33031
2950,181.18187,111.34951
2951,171.2533,103.59036
2952,161.39957,96.072266
2953,151.63933,88.813675
2954,141.99997,81.833046
2955,132.5056,75.147835
2956,123.179955,68.77475
2957,114.0491,62.729725
2958,105.13029,57.027573
2959,96.44862,51.68283
2960,88.02581,46.708855
2961,79.88292,42.11808
2962,72.04263,37.921986
2963,64.519775,34.130802
2964,57.335587,30.754251
2965,50.50804,27.80077
2966,44.05417,25.27774
2967,37.991943,23.191471
2968,32.332764,21.546974
2969,27.092743,20.348555
2970,22.284943,19.599201
2971,17.921387,19.300785
2972,14.014114,19.454052
2973,10.570496,20.05849
2974,7.6004333,21.112715
2975,5.111313,22.614079
2976,3.109375,24.55883
2977,1.5999908,26.942104
2978,0.5860443,29.757895
2979,0.07058716,32.99921
2980,0.054901123,36.657948
2981,0.53904724,40.724953
2982,1.5214386,45.190052
2983,3.000183,50.042118
2984,4.97139,55.269
2985,7.43013,60.857624
2986,10.3702545,66.794014
2987,13.783295,73.063324
2988,17.662811,79.65
2989,21.998138,86.53747
2990,26.778412,93.7085
2991,31.991714,101.14519
2992,37.623215,108.82891
2993,43.662292,116.740654
2994,50.092163,124.86048
2995,56.89679,133.16808
2996,64.05911,141.64267
2997,71.558945,150.26306
2998,79.38209,159.00797
2999,87.50674,167.8553
3000,95.9126,176.78293
3001,104.57867,185.76852
3002,113.48051,194.78963
3003,122.60131,203.82397
3004,131.91559,212.84872
3005,141.40009,221.84131
3006,151.03105,230.77922
3007,160.78143,239.64014
3008,170.63283,248.40222
3009,180.55762,257.04327
3010,190.53102,265.5417
3011,200.52809,273.8762
3012,210.52078,282.026
3013,220.49023,289.97104
3014,230.40848,297.69116
3015,240.25069,305.167
3016,249.99228,312.37994
3017,259.60602,319.31192
3018,269.07367,325.94592
3019,278.36865,332.26505
3020,287.46777,338.25354
3021,296.3482,343.89642
3022,304.98523,349.17957
3023,313.36243,354.09006
3024,321.4563,358.61536
3025,329.24652,362.74414
3026,336.71368,366.4661
3027,343.83694,369.77194
3028,350.60287,372.65363
3029,356.99234,375.1037
3030,362.98935,377.1161
3031,368.57892,378.68576
3032,373.7456,379.80878
3033,378.47955,380.48245
3034,382.76736,380.705
3035,386.5983,380.47583
3036,389.96277,379.79556
3037,392.85156,378.6659
3038,395.25925,377.08972
3039,397.17883,375.0709
3040,398.60547,372.61444
3041,399.53564,369.72656
3042,399.96698,366.41446
3043,399.89868,362.6864
3044,399.33063,358.5517
3045,398.2643,354.0207
3046,396.7024,349.10477
3047,394.6494,343.81616
3048,392.10934,338.16803
3049,389.08905,332.17456
3050,385.59604,325.85074
3051,381.6391,319.21237
3052,377.2295,312.27606
3053,372.3756,305.05902
3054,367.0908,297.57944
3055,361.3883,289.85596
3056,355.28235,281.90793
3057,348.79028,273.75522
3058,341.92438,265.418
3059,334.70367,256.9173
3060,327.1462,248.27435
3061,319.27094,239.51083
3062,311.10004,230.6486
3063,302.649,221.70956
3064,293.9413,212.71631
3065,284.9988,203.69131
3066,275.8438,194.65715
3067,266.50214,185.63641
3068,256.99136,176.65135
3069,247.33813,167.72469
3070,237.56657,158.87875
3071,227.70111,150.13567
3072,217.76942,141.51729
3073,207.7903,133.04483
3074,197.79172,124.73978
3075,187.79863,116.622894
3076,177.83606,108.714485
3077,167.93192,101.03431
3078,158.10489,93.60125
3079,148.38258,86.43418
3080,138.78932,79.551025
3081,129.34906,72.969
3082,120.088234,66.70455
3083,111.0243,60.773033
3084,102.182785,55.18956
3085,93.58579,49.968094
3086,85.254814,45.121685
3087,77.21307,40.66245
3088,69.475784,36.601273
3089,62.064774,32.948547
3090,54.99858,29.713411
3091,48.29486,26.903948
3092,41.972214,24.52718
3093,36.04265,22.588842
3094,30.522919,21.093975
3095,25.42685,20.046314
3096,20.767181,19.448479
3097,16.556763,19.301958
3098,12.803574,19.606981
3099,9.518326,20.362915
3100,6.709244,21.567871
3101,4.3833313,23.21883
3102,2.546936,25.311663
3103,1.2034607,27.841078
3104,0.3569641,30.800814
3105,0.009506226,34.183464
3106,0.1619873,37.98057
3107,0.8137512,42.18264
3108,1.963562,46.779182
3109,3.608429,51.758698
3110,5.744217,57.108727
3111,8.365601,62.815895
3112,11.465027,68.86593
3113,15.036621,75.24381
3114,19.070572,81.9335
3115,23.556824,88.918274
3116,28.48413,96.18066
3117,33.838486,103.7025
3118,39.609787,111.46517
3119,45.782043,119.44911
3120,52.339798,127.634346
3121,59.266663,136.00041
3122,66.54306,144.52638
3123,74.15526,153.1912
3124,82.08202,161.97296
3125,90.303566,170.84973
3126,98.799324,179.79932
3127,107.54535,188.79933
3128,116.52513,197.82756
3129,125.71358,206.86118
3130,135.08774,215.8776
3131,144.62415,224.85425
3132,154.29602,233.7687
3133,164.08508,242.59901
3134,173.96391,251.32278
3135,183.90782,259.9182
3136,193.89197,268.3638
3137,203.88834,276.63846
3138,213.87804,284.72183
3139,223.83304,292.59335
3140,233.72845,300.2334
3141,243.53957,307.62286
3142,253.23889,314.74326
3143,262.8081,321.5771
3144,272.22034,328.10696
3145,281.45203,334.3166
3146,290.48007,340.19043
3147,299.27933,345.7138
3148,307.8331,350.87323
3149,316.1173,355.65546
3150,324.11127,360.0486
3151,331.79498,364.04166
3152,339.14703,367.62463
3153,346.15356,370.78882
3154,352.7947,373.5261
3155,359.0539,375.8296
3156,364.91553,377.69354
3157,370.36328,379.11334
3158,375.38687,380.0856
3159,379.97205,380.60767
3160,384.10736,380.6783
3161,387.7824,380.29733
3162,390.98712,379.46567
3163,393.71548,378.1855
3164,395.9596,376.45993
3165,397.71387,374.29333
3166,398.97388,371.69107
3167,399.73633,368.65964
3168,399.99982,365.2067
3169,399.76334,361.34082
3170,399.0275,357.07166
3171,397.79413,352.4099
3172,396.0669,347.36722
3173,393.84912,341.95615
3174,391.14676,336.19028
3175,387.96655,330.084
3176,384.3165,323.65262
3177,380.20697,316.9122
3178,375.6458,309.87946
3179,370.6456,302.57208
3180,365.21878,295.00836
3181,359.37897,287.2072
3182,353.1427,279.18814
3183,346.52173,270.97098
3184,339.53452,262.57645
3185,332.1985,254.02556
3186,324.53198,245.33968
3187,316.5567,236.54053
3188,308.28763,227.64984
3189,299.74786,218.6901
3190,290.95874,209.68367
3191,281.94226,200.65312
3192,272.72375,191.621
3193,263.3207,182.6096
3194,253.75937,173.6417
3195,244.06363,164.73975
3196,234.25774,155.926
3197,224.36925,147.22246
3198,214.41682,138.6506
3199,204.42836,130.23213
3200,194.42883,121.988106
3201,184.44324,113.93913
3202,174.49954,106.10535
3203,164.61656,98.50599
3204,154.82204,91.16038
3205,145.14044,84.08687
3206,135.59598,77.30314
3207,126.215355,70.82616
3208,117.01629,64.67181
3209,108.02466,58.85576
3210,99.26294,53.392548
3211,90.75305,48.295837
3212,82.51873,43.57837
3213,74.57553,39.251663
3214,66.94585,35.32679
3215,59.64879,31.81356
3216,52.702576,28.720757
3217,46.126526,26.05611
3218,39.933044,23.826065
3219,34.13971,22.0364
3220,28.760986,20.691587
3221,23.810333,19.794989
3222,19.301422,19.34884
3223,15.242767,19.35411
3224,11.645966,19.810926
3225,8.52002,20.718145
3226,5.872711,22.073494
3227,3.7112885,23.873583
3228,2.039795,26.11384
3229,0.8631592,28.788734
3230,0.18432617,31.891579
3231,0.004989624,35.414608
3232,0.3254242,39.34901
3233,1.1450348,43.684963
3234,2.4617157,48.411625
3235,4.272217,53.517174
3236,6.571991,58.988834
3237,9.35437,64.81293
3238,12.61409,70.97499
3239,16.34224,77.45954
3240,20.52951,84.25036
3241,25.165405,91.33046
3242,30.23674,98.68214
3243,35.733917,106.287186
3244,41.641724,114.126434
3245,47.945404,122.1803
3246,54.62918,130.42862
3247,61.67415,138.85078
3248,69.067,147.42596
3249,76.78716,156.13252
3250,84.81532,164.94868
3251,93.131424,173.85239
3252,101.712006,182.8214
3253,110.54087,191.83356
3254,119.59336,200.86607
3255,128.84686,209.89638
3256,138.27823,218.90189
3257,147.86093,227.86008
3258,157.57687,236.74889
3259,167.39886,245.54578
3260,177.30237,254.22878
3261,187.26259,262.77615
3262,197.2516,271.16656
3263,207.25055,279.37933
3264,217.23135,287.39365
3265,227.16908,295.18945
3266,237.03891,302.74728
3267,246.81317,310.04822
3268,256.4734,317.07437
3269,265.9925,323.80783
3270,275.34656,330.23178
3271,284.51233,336.33014
3272,293.4641,342.08768
3273,302.18503,347.4903
3274,310.6505,352.52423
3275,318.83936,357.17685
3276,326.73117,361.43658
3277,334.3039,365.29276
3278,341.54327,368.73596
3279,348.42883,371.7574
3280,354.94333,374.34943
3281,361.0705,376.50568
3282,366.79333,378.2207
3283,372.10107,379.49045
3284,376.97855,380.3115
3285,381.41364,380.68185
3286,385.39523,380.60056
3287,388.91235,380.0678
3288,391.95844,379.08508
3289,394.5246,377.65472
3290,396.60455,375.7803
3291,398.193,373.4665
3292,399.28577,370.71912
3293,399.88074,367.54504
3294,399.97607,363.9522
3295,399.57153,359.94955
3296,398.66806,355.54712
3297,397.2685,350.75592
3298,395.37543,345.5879
3299,392.99402,340.05597
3300,390.1301,334.17398
3301,386.79092,327.95667
3302,382.98602,321.41956
3303,378.72266,314.57883
3304,374.01248,307.45175
3305,368.8673,300.05612
3306,363.30005,292.41046
3307,357.32642,284.53384
3308,350.95776,276.44577
3309,344.21173,268.1667
3310,337.1052,259.71722
3311,329.65594,251.11858
3312,321.88498,242.39221
3313,313.807,233.55968
3314,305.44458,224.64331
3315,296.81854,215.66539
3316,287.95044,206.64838
3317,278.86536,197.61482
3318,269.58032,188.58699
3319,260.12137,179.58772
3320,250.51215,170.63956
3321,240.77664,161.76483
3322,230.94223,152.98575
3323,221.02747,144.32393
3324,211.06015,135.80132
3325,201.06517,127.439224
3326,191.06754,119.25856
3327,181.09528,111.279785
3328,171.16722,103.522514
3329,161.31123,96.00644
3330,151.55197,88.75035
3331,141.91382,81.77239
3332,132.42374,75.09001
3333,123.099655,68.719604
3334,113.96781,62.67738
3335,105.051025,56.978443
3336,96.371605,51.637043
3337,87.95374,46.666534
3338,79.81337,42.079067
3339,71.97345,37.886368
3340,64.45355,34.098915
3341,57.272507,30.72618
3342,50.45027,27.776588
3343,43.999725,25.257292
3344,37.939148,23.174799
3345,32.283707,21.534317
3346,27.0475,20.339941
3347,22.245056,19.594658
3348,17.885406,19.300169
3349,13.981018,19.457367
3350,10.541641,20.065851
3351,7.5758514,21.124096
3352,5.0917816,22.629456
3353,3.0941162,24.578087
3354,1.5886536,26.965195
3355,0.57917786,29.784811
3356,0.06820679,33.02988
3357,0.05697632,36.69229
3358,0.54545593,40.762882
3359,1.5325317,45.231483
3360,3.015747,50.086926
3361,4.9913635,55.31706
3362,7.453644,60.908802
3363,10.397919,66.84827
3364,13.816162,73.12053
3365,17.69983,79.70991
3366,22.0392,86.59992
3367,26.821915,93.77334
3368,32.038925,101.21239
3369,37.675797,108.89832
3370,43.71846,116.81194
3371,50.15178,124.93344
3372,56.95755,133.24252
3373,64.122925,141.71863
3374,71.627975,150.34038
3375,79.45391,159.08621
3376,87.58119,167.93425
3377,95.98689,176.86237
3378,104.65512,185.84853
3379,113.56169,194.87001
3380,122.68434,203.90427
3381,132.00026,212.92871
3382,141.48325,221.92076
3383,151.11539,230.85826
3384,160.86972,239.71858
3385,170.7219,248.47957
3386,180.64723,257.11932
3387,190.6179,265.61624
3388,200.61507,273.9494
3389,210.6107,282.0977
3390,220.5798,290.0407
3391,230.49747,297.7586
3392,240.33589,305.2321
3393,250.0765,312.44278
3394,259.69196,319.37238
3395,269.15814,326.00354
3396,278.4515,332.3197
3397,287.546,338.30505
3398,296.42444,343.94495
3399,305.06183,349.225
3400,313.43658,354.13202
3401,321.52783,358.65375
3402,329.3129,362.77887
3403,336.77716,366.4973
3404,343.89948,369.7996
3405,350.6621,372.6774
3406,357.0481,375.12354
3407,363.03973,377.13193
3408,368.62573,378.69772
3409,373.79016,379.81683
3410,378.52017,380.48645
3411,382.80392,380.70493
3412,386.62958,380.4717
3413,389.99,379.7875
3414,392.87543,378.6539
3415,395.27872,377.07373
3416,397.19385,375.05096
3417,398.61572,372.59064
3418,399.54156,369.69897
3419,399.96863,366.38315
3420,399.89578,362.65143
3421,399.32324,358.51318
3422,398.25287,353.97876
3423,396.68665,349.05942
3424,394.62872,343.76752
3425,392.0843,338.1163
3426,389.0597,332.11987
3427,385.5636,325.7932
3428,381.60266,319.15207
3429,377.18774,312.2131
3430,372.32993,304.9937
3431,367.04132,297.5119
3432,361.3369,289.7864
3433,355.22754,281.83636
3434,348.7301,273.6818
3435,341.8609,265.3431
3436,334.6371,256.84116
3437,327.07904,248.19717
3438,319.2011,239.43253
3439,311.02518,230.56937
3440,302.5717,221.62984
3441,293.86182,212.6363
3442,284.92004,203.61125
3443,275.76334,194.57695
3444,266.4172,185.55624
3445,256.90506,176.5717
3446,247.25066,167.64578
3447,237.48114,158.8008
3448,227.61496,150.05855
3449,217.67975,141.44118
3450,207.70033,132.97023
3451,197.70168,124.666885
3452,187.71182,116.55191
3453,177.74962,108.64525
3454,167.84303,100.96699
3455,158.01685,93.53632
3456,148.29561,86.371826
3457,138.70651,79.49141
3458,129.2677,72.91196
3459,120.0057,66.65021
3460,110.94367,60.721825
3461,102.104256,55.14162
3462,93.51215,49.92355
3463,85.18357,45.08037
3464,77.14202,40.624462
3465,69.40758,36.566956
3466,61.999588,32.918
3467,54.93869,29.68671
3468,48.23819,26.880936
3469,41.917053,24.50791
3470,35.99109,22.57356
3471,30.475128,21.082724
3472,25.38443,20.039124
3473,20.728607,19.445202
3474,16.52092,19.302603
3475,12.771896,19.61168
3476,9.4908905,20.371656
3477,6.68692,21.580631
3478,4.3652344,23.235489
3479,2.5326233,25.332184
3480,1.1936188,27.86547
3481,0.35159302,30.82901
3482,0.008682251,34.21539
3483,0.16551208,38.016132
3484,0.82188416,42.221756
3485,1.976181,46.821743
3486,3.625473,51.80459
3487,5.7649384,57.15782
3488,8.390518,62.868145
3489,11.495087,68.92122
3490,15.070892,75.3019
3491,19.108963,81.99424
3492,23.597794,88.9815
3493,28.528885,96.24636
3494,33.88861,103.77052
3495,39.663605,111.53518
3496,45.839386,119.52091
3497,52.398483,127.70775
3498,59.32849,136.07545
3499,66.61014,144.6029
3500,74.22525,153.26877
3501,82.15476,162.05138
3502,90.376305,170.92879
3503,98.87435,179.87907
3504,107.6252,188.87961
3505,116.606964,197.90788
3506,125.79718,206.94133
3507,135.17001,215.95735
3508,144.70773,224.93373
3509,154.38368,233.84773
3510,164.17365,242.67708
3511,174.05318,251.39969
3512,183.99454,259.99374
3513,193.97891,268.4381
3514,203.97836,276.71136
3515,213.96785,284.79282
3516,223.92242,292.66226
3517,233.8142,300.30002
3518,243.62447,307.68735
3519,253.32568,314.80545
3520,262.8936,321.63654
3521,272.3043,328.1635
3522,281.53146,334.3701
3523,290.55765,340.24106
3524,299.35748,345.76144
3525,307.90894,350.91742
3526,316.1906,355.69614
3527,324.17947,360.08566
3528,331.8604,364.07526
3529,339.2117,367.6547
3530,346.215,370.81503
3531,352.85278,373.5484
3532,359.10663,375.84793
3533,364.96472,377.70807
3534,370.4104,379.12402
3535,375.4301,380.0922
3536,380.0113,380.61023
3537,384.1413,380.6768
3538,387.81232,380.29187
3539,391.01385,379.4563
3540,393.73785,378.17215
3541,395.9776,376.44266
3542,397.72696,374.27213
3543,398.98267,371.66605
3544,399.74097,368.6309
3545,399.99994,365.17422
3546,399.75894,361.3047
3547,399.01892,357.032
3548,397.78122,352.36682
3549,396.04913,347.32077
3550,393.82697,341.9065
3551,391.12024,336.13757
3552,387.93683,330.02838
3553,384.2827,323.59415
3554,380.1679,316.85095
3555,375.60275,309.81573
3556,370.59863,302.50607
3557,365.16974,294.94022
3558,359.3264,287.13696
3559,353.08475,279.1159
3560,346.46045,270.89716
3561,339.46997,262.50122
3562,332.1332,253.94913
3563,324.46393,245.26202
3564,316.48352,236.4618
3565,308.2119,227.57051
3566,299.6698,218.61035
3567,290.8813,209.60374
3568,281.8629,200.5729
3569,272.6399,191.54068
3570,263.2353,182.52966
3571,253.67264,173.56238
3572,243.97878,164.66124
3573,234.17203,155.84819
3574,224.27988,147.14554
3575,214.32703,138.57506
3576,204.33835,130.15817
3577,194.34189,121.91593
3578,184.35652,113.86861
3579,174.41025,106.03661
3580,164.52795,98.439545
3581,154.73433,91.09639
3582,145.0568,84.025505
3583,135.51364,77.244255
3584,126.131676,70.76988
3585,116.93437,64.618576
3586,107.94472,58.805714
3587,99.18781,53.345825
3588,90.68021,48.252274
3589,82.44587,43.53806
3590,74.50541,39.21497
3591,66.87865,35.293808
3592,59.586838,31.784382
3593,52.643753,28.695219
3594,46.06903,26.034271
3595,39.87909,23.808187
3596,34.089417,22.022532
3597,28.71608,20.681767
3598,23.769196,19.789064
3599,19.262848,19.346828
3600,15.208313,19.35616
3601,11.615723,19.81703
3602,8.494919,20.728289
3603,5.851822,22.087553
3604,3.6940308,23.891523
3605,2.0269928,26.135689
3606,0.8548279,28.814432
3607,0.18061829,31.921055
3608,0.005630493,35.44777
3609,0.33058167,39.385784
3610,1.1546631,43.725254
3611,2.4758148,48.45532
3612,4.2901154,53.56415
3613,6.594116,59.039043
3614,9.381607,64.86626
3615,12.645584,71.03122
3616,16.377914,77.51852
3617,20.567902,84.31191
3618,25.207657,91.39458
3619,30.284348,98.74868
3620,35.785294,106.355835
3621,41.696747,114.19701
3622,48.001923,122.252594
3623,54.68895,130.50267
3624,61.739197,138.92642
3625,69.135086,147.50279
3626,76.85809,156.21031
3627,84.886444,165.02724
3628,93.20495,173.93178
3629,101.79043,182.90143
3630,110.621414,191.91376
3631,119.67581,200.94626
3632,128.92816,209.97632
3633,138.36096,218.98167
3634,147.94786,227.93954
3635,157.66487,236.82751
3636,167.4877,245.62337
3637,177.38878,254.30511
3638,187.3494,262.85138
3639,197.34163,271.24048
3640,207.34052,279.45148
3641,217.32104,287.46384
3642,227.25526,295.25748
3643,237.12439,302.8133
3644,246.9007,310.1121
3645,256.55978,317.1356
3646,266.07745,323.86624
3647,275.42715,330.2872
3648,284.59116,336.38275
3649,293.5437,342.1374
3650,302.26242,347.53668
3651,310.7255,352.56717
3652,318.90933,357.21628
3653,326.79846,361.47263
3654,334.3706,365.32532
3655,341.60687,368.76474
3656,348.48914,371.7823
3657,354.9983,374.37042
3658,361.12207,376.5229
3659,366.84302,378.2341
3660,372.1469,379.4998
3661,377.02045,380.31677
3662,381.45026,380.683
3663,385.42786,380.59778
3664,388.94193,380.06113
3665,391.98367,379.07437
3666,394.54553,377.64
3667,396.62048,375.76163
3668,398.20465,373.444
3669,399.29333,370.69284
3670,399.88385,367.51505
3671,399.97467,363.91852
3672,399.5658,359.9123
3673,398.65802,355.50635
3674,397.25366,350.7117
3675,395.35617,345.54037
3676,392.97034,340.0053
3677,390.1031,334.12033
3678,386.75983,327.90002
3679,382.9497,321.36005
3680,378.68222,314.51675
3681,373.96808,307.38727
3682,368.8207,299.98938
3683,363.24982,292.34146
3684,357.2708,284.46277
3685,350.89868,276.373
3686,344.14932,268.09235
3687,337.04187,259.6416
3688,329.5897,251.0416
3689,321.8136,242.31404
3690,313.73297,233.48076
3691,305.36804,224.56386
3692,296.7424,215.58562
3693,287.8723,206.5682
3694,278.7826,197.53442
3695,269.4959,188.50685
3696,260.0355,179.50807
3697,250.42798,170.56058
3698,240.69148,161.68642
3699,230.85327,152.90808
3700,220.93793,144.24751
3701,210.97025,135.72636
3702,200.9782,127.36594
3703,190.98064,119.1868
3704,181.00565,111.2097
3705,171.07812,103.4546
3706,161.2229,95.94087
3707,151.46758,88.68732
3708,141.83058,81.71173
3709,132.33899,75.03186
3710,123.01655,68.6644
3711,113.886536,62.625275
3712,104.97448,56.92958
3713,96.29722,51.59126
3714,87.87918,46.62393
3715,79.74142,42.040016
3716,71.9043,37.850975
3717,64.38962,34.067276
3718,57.21158,30.698128
3719,50.390488,27.752188
3720,43.94339,25.236822
3721,37.886414,23.158316
3722,32.236343,21.521862
3723,27.00383,20.331364
3724,22.203796,19.58998
3725,17.84822,19.299557
3726,13.947983,19.460815
3727,10.513794,20.073353
3728,7.55217,21.135525
3729,5.0716095,22.644787
3730,3.078354,24.597364
3731,1.5773468,26.988367
3732,0.57258606,29.811815
3733,0.065963745,33.06062
3734,0.059143066,36.726692
3735,0.552124,40.800865
3736,1.5436707,45.272945
3737,3.0308075,50.131756
3738,5.010681,55.365196
3739,7.478012,60.960144
3740,10.42659,66.9026
3741,13.84906,73.17772
3742,17.735626,79.7698
3743,22.078903,86.66249
3744,26.866974,93.83844
3745,32.087814,101.27972
3746,37.728424,108.96771
3747,43.77275,116.883194
3748,50.209396,125.006584
3749,57.020493,133.31738
3750,64.18901,141.79482
3751,71.69702,150.4177
3752,79.52334,159.16443
3753,87.653145,168.01344
3754,96.063805,176.94237
3755,104.734276,185.92888
3756,113.6429,194.9505
3757,122.76457,203.98468
3758,132.08208,213.00914
3759,141.56937,222.00104
3760,151.2027,230.9379
3761,160.95804,239.79736
3762,170.80794,248.55728
3763,180.73381,257.1961
3764,190.70784,265.69193
3765,200.70511,274.0235
3766,210.7006,282.16998
3767,220.66632,290.11102
3768,230.58342,297.82712
3769,240.42407,305.29865
3770,250.16367,312.50693
3771,259.77786,319.434
3772,269.23978,326.06247
3773,278.5315,332.3761
3774,287.62692,338.35883
3775,296.5033,343.9957
3776,305.13843,349.27264
3777,313.50824,354.17645
3778,321.5969,358.69513
3779,329.38156,362.81714
3780,336.84283,366.53223
3781,343.962,369.83105
3782,350.7193,372.70538
3783,357.10196,375.1483
3784,363.0919,377.15344
3785,368.67413,378.71585
3786,373.83472,379.83163
3787,378.5594,380.49796
3788,382.83917,380.71338
3789,386.66193,380.4772
3790,390.01807,379.79
3791,392.89923,378.65356
3792,395.2975,377.07074
3793,397.20837,375.04553
3794,398.62625,372.583
3795,399.54764,369.68933
3796,399.97018,366.37173
3797,399.89294,362.63858
3798,399.3161,358.49924
3799,398.24097,353.96405
3800,396.6703,349.0444
3801,394.60797,343.75266
3802,392.06006,338.10208
3803,389.0313,332.10678
3804,385.53,325.78183
3805,381.56494,319.14316
3806,377.146,312.20743
3807,372.28577,304.99203
3808,366.99344,297.51495
3809,361.2837,289.79514
3810,355.17075,281.852
3811,348.66992,273.70544
3812,341.7996,265.37607
3813,334.57275,256.88458
3814,327.00952,248.2526
3815,319.12878,239.50182
3816,310.95026,230.65439
3817,302.497,221.73262
3818,293.785,212.7588
3819,284.83853,203.7559
3820,275.68,194.74672
3821,266.33228,185.75415
3822,256.82166,176.80103
3823,247.16612,167.90985
3824,237.39268,159.1036
3825,227.52577,150.40482
3826,217.59006,141.83583
3827,207.61342,133.4187
3828,197.6147,125.17485
3829,187.62195,117.12598
3830,177.66014,109.29309
3831,167.75418,101.696754
3832,157.93181,94.35704
3833,148.21158,87.293175
3834,138.62082,80.52447
3835,129.18349,74.06932
3836,119.92319,67.945526
3837,110.86579,62.170235
3838,102.02842,56.75962
3839,93.43594,51.729755
3840,85.10986,47.095737
3841,77.070984,42.87195
3842,69.341705,39.072056
3843,61.936646,35.708763
3844,54.87671,32.79455
3845,48.17955,30.340979
3846,41.861908,28.358915
3847,35.94133,26.858583
3848,30.429,25.84939
3849,25.340546,25.340546
